-1,-1,-1,0,0,-2,-1,0,-1,-1,-1,-1,-1,-1,-1,1,-1,-2,-1,-2,-2,-2,1,-1,-1,2,-2,-1,0,-1,-2,1,-2,-1,-1,-1,0,-1,0,-3,-1,-1,1,-2,0,0,0,0,-2,0,-2,-2,-1,0,-2,-1,0,-1,-2,-2,-1,0,1,-2,1,0,-1,-2,-1,0,-2,-2,-2,1,0,-3,-1,-1,-1,0,-1,-1,-1,-1,-1,-2,2,-1,-2,0,-2,-1,-1,-1,-1,-2,-1,0,-1,-2,-1,0,-1,-2,-1,-1,1,-1,0,-1,-1,-2,-1,-1,0,-3,-1,0,-2,-2,0,0,0,-2,-1,-1,-1,-1,0,1,0,-2,0,-1,-1,-2,0,-1,-1,-1,-1,1,0,-2,0,0,1,-2,-1,-2,-1,0,1,0,-2,0,-1,0,-1,-2,-1,0,-1,-2,-1,0,-3,-1,-1,0,-1,-1,0,0,0,-2,-1,-1,0,-1,-2,-2,-1,-1,0,-1,0,-3,1,0,-2,-1,-2,-1,-1,-2,0,-1,-1,-2,0,0,0,-2,-1,-2,0,-2,-2,0,-1,-3,0,0,-1,0,-1,0,-1,-2,0,0,-2,-2,-1,0,0,-2,-1,0,-2,-1,-1,-1,-1,-2,-2,-1,1,-2,-2,0,-3,1,1,0,0,-3,-1,-2,0,2,-1,-1,-2,2,1,-1,-1,-1,2,-1,0,-5,3,-23,-9,38,15,-20,-18,25,24,14,-17,-43,-20,0,17,2,1,-11,17,-30,-40,44,10,18,-19,-10,57,-9,60,-24,-64,5,-21,-22,-5,-71,78,14,-17,82,-48,-15,-16,1,2,23,-1,-8,1,32,31,-64,0,21,9,-3,-17,-47,40,45,-22,-3,-17,-4,9,18,-38,17,-4,-34,44,16,-10,-38,24,-23,-6,-1,-2,-36,23,25,-51,2,-33,72,-9,-18,-10,7,1,-18,32,-12,-2,-6,25,-18,-5,19,-15,0,-12,-10,7,-11,18,21,-9,-19,14,22,-11,7,-4,12,-18,9,4,2,-14,-5,-11,-4,-10,9,-12,-4,9,-4,-7,13,12,11,-2,-8,-5,-1,30,-31,18,-18,11,-12,-13,-12,1,5,-8,16,-30,34,14,9,18,-7,-23,-9,-20,5,25,-12,-22,18,18,-35,37,9,2,18,-40,-20,6,12,24,-32,-32,-18,34,15,1,-19,4,-24,8,31,-47,51,-10,5,-12,-21,17,0,7,-23,-22,17,16,-39,-23,33,-35,49,-7,6,13,-40,-12,-34,32,-3,7,-14,-10,5,8,-28,46,-10,-44,41,-3,7,-5,-2,-32,20,1,16,-8,-11,3,-1,11,19,-25,13,-8,0,17,-27,-1,22,-4,-17,4,-9,14,15,-15,-24,37,-12,-25,-7,22,-2,-4,3,-19,12,-7,11,3,-28,-8,19,14,9,2,-10,-17,9,5,3,-2,-11,4,2,3,-13,-5,1,26,-21,-23,-4,12,47,-25,-4,-5,-9,8,4,-5,14,0,-35,-8,5,-2,18,7,-3,11,-35,11,-18,-2,26,-8,20,5,-8,0,-30,11,18,-11,-18,23,3,-19,40,-22,10,-3,-14,-5,-13,1,-5,2,-8,16,-10,10,18,-9,15,-20,-5,7,-10,-6,-5,11,-11,20,-10,-8,8,5,-9,-2,8,-10,-2,0,16,-2,-17,-4,11,-9,3,-5,0,12,-11,-14,20,1,16,-3,-20,0,9,-5,-16,6,4,6,1,-26,-1,3,-7,11,3,10,-2,-11,-9,-1,-9,-5,3,3,5,-11,8,-5,3,-2,13,-14,0,15,-4,6,-6,-7,0,16,-3,-1,-11,-4,3,-11,-13,22,-3,-13,15,24,-15,9,-21,-22,10,8,6,-7,0,0,15,-23,11,17,12,-9,-10,25,-15,6,1,-13,3,-3,-3,-8,-23,22,7,-9,-8,-26,25,-2,1,-7,-4,1,-7,1,-13,10,-1,10,-14,9,-3,-8,16,16,-2,-3,-13,-19,-4,7,16,-1,-2,-7,4,-21,23,-6,-9,-3,-2,28,-21,3,8,-13,15,0,8,-12,-9,-26,11,9,15,-20,-12,27,4,-7,-15,30,-4,-2,-10,-6,3,19,-21,-6,-3,-9,12,-23,-12,32,-10,5,20,-6,-7,-17,6,-7,10,5,-15,4,-19,9,1,-18,16,20,-6,-39,45,-12,5,6,-19,2,-16,3,3,3,-18,3,-3,-8,-11,32,-22,11,3,-1,-7,-30,18,-1,7,6,-19,-6,38,-11,-13,33,-1,0,-3,-5,13,-12,-12,-7,-2,3,10,-11,-2,-14,38,21,-19,0,-1,-9,-17,3,18,-3,0,-16,2,2,-36,17,-7,16,-13,-5,18,-11,2,14,-8,4,22,-14,-22,-5,11,9,-3,-9,-11,12,-10,-4,11,15,-36,14,23,-22,5,-6,-7,14,-11,-22,19,-3,-5,-7,1,-2,14,0,-27,2,5,-4,5,8,-6,5,2,0,-18,-2,16,21,3,2,-1,6,-2,-1,-20,-10,11,-8,-4,-12,8,-6,7,-1,-8,-2,10,-9,5,11,-17,-9,-6,2,13,-1,1,-23,-3,10,-2,7,-8,-3,11,-8,7,4,-13,2,-17,8,1,-5,4,-7,-4,3,-6,-9,10,17,-16,9,-2,7,6,-25,2,1,-6,9,-8,7,7,-19,0,-3,8,11,0,-15,-5,-9,-15,5,10,-5,0,-2,-10,2,0,-1,17,-9,-7,7,-3,13,2,-11,-2,1,-3,-6,-7,-5,10,-9,-5,13,8,-6,-3,-2,-2,-5,27,-16,1,0,-9,9,-14,-4,9,6,-20,-4,-4,45,-16,18,-18,-15,10,-8,9,-13,-4,14,-3,-12,-16,14,5,1,8,-4,-18,22,11,-8,-3,-10,2,0,0,-8,2,-5,2,8,-3,4,8,2,27,-22,1,-7,-4,3,-7,-14,-1,-5,5,1,-29,2,20,2,12,33,-10,-17,-15,-7,0,7,-6,2,-1,-12,15,12,7,4,-16,8,11,4,-2,-13,-8,-2,-12,-1,-6,-6,8,1,-16,0,23,-16,-7,-5,17,-12,27,3,0,-21,-7,-3,-2,5,-5,-10,2,5,-3,14,0,-5,-5,-6,25,17,-7,-16,-15,15,-16,17,-15,-8,2,4,-21,0,-6,8,15,0,-12,0,7,-16,18,-6,-19,6,3,2,-11,-16,18,-3,-18,5,41,16,-1,6,-17,-11,-19,18,-31,26,-9,1,-17,-22,26,-14,16,-13,11,-33,-9,45,13,-2,-31,11,0,-9,9,-22,14,15,-43,-4,70,24,15,-61,-8,-2,6,-6,-10,9,9,-8,-6,-9,11,40,-54,-34,-29,22,100,58,-40,-36,-82,47,64,-44,28,-128,107,-8,-60,2,13,31,0,-8,-47,14,-14,10,12,-7,-11,21,-14,-14,8,50,-54,23,46,-54,20,-2,15,7,-17,-29,-12,-4,6,14,-18,2,8,-10,-12,15,-2,-8,1,8,-8,-2,-2,2,-5,4,-2,2,-3,-1,-4,0,4,-4,-3,1,0,-4,1,2,-2,-1,1,-2,-1,-2,-1,-4,0,-1,-2,0,1,-3,-1,0,-2,-3,-2,0,-1,-2,0,-1,0,-2,-2,1,-2,-1,0,0,0,-2,-1,1,0,0,-1,0,0,-1,0,1,2,-2,-3,0,0,0,-2,-1,2,-1,-2,0,0,-2,-1,-1,-1,-2,-2,-1,1,-1,-1,0,-1,-2,-2,0,0,-2,-1,-1,0,-1,0,-1,-1,-1,-1,-1,-1,-2,-2,-1,-1,-1,-2,1,0,-1,1,1,0,-3,0,0,-1,-2,0,-1,-1,-1,0,-1,0,-1,-2,-1,-1,0,-1,0,-1,-2,-1,-1,-1,0,0,0,-1,-2,-1,-2,0,0,-1,-1,-1,-1,-2,-3,0,-2,0,-2,-1,-2,0,-1,-1,-1,-1,-1,-2,-2,-1,0,-2,-1,-1,0,0,0,-1,0,-4,-1,0,-1,-2,-1,-2,-1,0,0,0,-1,0,0,0,0,-2,-2,0,1,-1,-1,1,-2,-1,-2,-1,-1,-2,-2,0,0,-3,-1,1,-2,0,0,0,1,0,-1,-1,-3,1,-1,0,0,-2,-1,-1,-2,-3,-1,0,1,-1,-1,0,-2,-1,-1,-1,0,-2,-1,0,-1,-2,0,-2,-1,-1,1,-3,-1,-1,-2,1,0,-2,-2,0,1,0,-1,1,0,-3,-1,-1,0,-3,0,0,-1,-1,2,0,-1,-2,0,-1,-1,-1,0,0,-1,-1,-1,1,-2,-1,2
-2,0,0,-2,-2,-1,0,0,-1,0,0,-1,0,0,-2,0,-1,-1,-2,0,-2,-1,0,-1,0,-1,0,1,1,-1,0,-2,-2,-1,-1,0,0,-1,-2,0,-1,0,0,-1,-1,-2,-2,-1,0,-1,0,-2,0,-1,0,1,-1,0,0,0,0,-2,-2,-1,0,0,-1,-2,-2,0,0,-1,1,-1,-1,0,0,0,0,0,-1,0,-1,0,0,-1,-1,-2,-1,-1,0,-1,0,-1,1,1,-1,-1,-1,-1,-1,1,-1,0,-1,0,0,-1,1,-1,0,-1,-2,0,-1,-2,-2,-2,-1,0,0,-1,-1,-1,1,-1,-1,0,1,-1,0,-2,0,0,-1,-2,-2,0,0,0,-2,-2,-1,-1,-1,0,-1,-2,-1,-1,-1,0,0,-1,-1,1,-3,-1,-1,-2,0,-1,-1,-2,0,0,1,0,-2,-3,-2,0,-1,-1,-1,-1,0,0,-1,0,0,0,-2,0,-1,-1,1,-1,0,-1,-1,0,0,0,-1,-1,-1,0,0,0,-2,1,-2,-1,0,-2,-2,0,-2,-1,0,-1,1,-1,-2,-1,-2,0,0,-2,0,0,0,-2,-1,0,2,0,-1,-3,-1,0,0,0,-2,-1,0,-1,-1,0,-1,-2,-1,-1,0,-2,0,-1,-2,-1,-1,-1,-1,-1,1,-2,-2,-1,0,0,-1,-2,-1,-2,1,0,0,0,-1,-1,-1,0,0,-1,1,-1,0,-1,-2,1,0,1,-2,0,0,0,-2,-2,0,0,0,-1,-1,0,-1,-1,-1,-1,0,0,-1,0,0,-2,-1,0,-1,-1,-1,0,0,0,-1,-2,-1,-1,0,-1,-1,0,0,-2,-2,0,0,-1,-1,-2,0,0,0,0,-2,1,0,1,-1,-1,-1,0,-1,-2,-1,-1,0,0,-2,0,0,-1,-1,0,-1,-1,0,-2,0,-1,0,-1,0,-3,-3,0,-2,2,-2,0,0,-1,1,-3,0,-2,0,0,0,-1,0,0,-2,0,0,-1,-1,-1,0,0,0,0,0,0,-1,0,-2,-1,0,-1,0,0,-5,-20,0,14,-5,44,-53,51,38,27,-20,37,7,-16,2,-41,-6,12,1,-28,1,-7,-36,-5,-10,-38,65,20,-47,-47,31,-13,44,17,-34,26,-58,17,31,-54,-13,3,18,8,0,3,-12,-42,81,-48,-56,4,26,-27,9,-26,58,-42,-19,15,-38,21,8,-2,6,2,53,17,-54,0,22,-6,-22,52,-13,-3,-4,-2,8,16,-15,20,-10,-8,-20,25,-19,53,-35,-38,25,23,67,-13,19,-41,40,26,-15,15,-54,82,-37,-22,-9,17,-22,39,19,-51,5,-15,8,11,7,-12,2,-25,19,-6,0,-12,21,-79,10,56,33,14,-60,30,-27,-11,1,6,-5,31,-54,-19,19,7,35,-47,6,-25,13,-27,41,9,-28,33,-22,16,2,-1,-7,3,-4,-13,-16,-12,43,-46,91,-8,-16,83,-98,4,28,-80,16,8,-23,9,-13,-39,29,7,18,14,20,-24,42,-22,33,-14,42,-29,-9,21,-46,20,-31,27,-16,15,6,29,-57,-24,-4,-18,19,-1,12,36,-77,72,-12,-9,30,-26,-9,-18,10,-25,39,-75,9,75,-35,-24,-3,-6,-38,61,69,-24,60,-46,-32,6,-11,42,-5,-38,-1,-1,68,32,-46,-2,6,38,-13,-16,-45,-53,86,-15,38,-45,-25,-9,13,6,-10,18,-26,-22,20,-1,-48,9,5,47,-57,4,-53,18,-20,33,4,-5,-26,-9,50,-62,0,88,-46,21,75,-92,66,-34,42,25,-38,-6,17,-2,-42,30,-22,32,19,0,10,51,3,45,-24,24,-3,-14,-33,-3,-16,-5,-17,-22,11,-7,-18,-13,54,78,-15,35,-37,-33,46,-15,-23,0,-2,-35,26,-22,9,-6,7,-17,40,-112,96,-33,-45,-33,25,-61,5,24,-27,21,-11,15,-14,60,-18,-1,69,-108,-2,34,-24,39,35,3,-36,69,-46,14,-28,25,-28,17,-17,17,16,-68,36,5,-18,66,-58,-20,53,3,-31,5,-31,67,-27,-2,-16,-8,82,-105,34,-23,9,1,26,-20,-61,35,-22,-5,3,15,0,-39,-5,8,27,44,-2,37,19,29,12,-56,49,-33,3,17,-26,15,-39,-1,-18,20,-5,4,-8,5,6,-23,21,-31,24,9,-10,0,-30,25,-3,-14,16,25,1,6,17,-12,6,31,7,-2,-41,-19,-10,22,6,-21,30,-35,13,38,-32,76,-57,-9,-43,38,-6,-7,14,-41,-28,4,-61,31,-17,17,46,-28,-12,-12,-7,20,9,2,7,-18,14,0,48,-43,25,-20,7,9,9,75,-59,-3,-3,-37,-7,0,23,1,-3,10,-13,33,-50,-15,79,-103,94,-31,1,-6,38,-25,-1,-26,42,23,3,-16,-4,16,-27,36,-34,10,-17,17,-4,-42,29,-15,-26,55,-36,-28,8,-25,12,21,-30,17,-2,29,-9,-36,-26,34,-12,-20,-12,50,-44,18,9,25,-33,-4,31,-27,43,-1,-29,41,-11,46,7,-6,29,6,-20,-59,77,1,41,-50,-33,-3,14,-6,9,-9,-39,46,-88,28,-6,-77,31,17,-28,27,30,-20,-10,22,31,-30,25,-56,13,-21,5,12,17,5,-30,65,-13,-49,-2,0,4,35,21,-6,4,-24,-1,-8,-14,-12,25,28,11,-5,74,-28,-8,62,22,-41,7,-7,-13,-6,-12,8,-52,35,46,-38,70,-106,69,12,-38,44,-50,-3,-40,12,-16,3,-23,20,12,36,-54,-12,71,-52,3,77,11,23,-5,-26,-60,62,13,6,-24,-70,17,-6,10,-57,13,54,-41,49,-30,97,-45,-16,24,-38,17,-25,39,-83,-13,62,-23,-105,59,-68,27,36,-26,53,-64,-33,88,-56,2,32,-19,-18,17,-5,-56,68,-79,126,22,-21,-46,66,-75,58,49,-43,18,-29,-8,37,-33,-11,34,-56,85,-52,77,48,-99,97,8,-56,48,-6,-32,-29,41,-4,5,-3,-80,-25,-20,33,-6,-6,-6,-6,24,-45,-48,36,26,8,17,-18,-9,-12,38,-14,-27,8,13,-27,-14,-18,6,-13,73,-11,41,-39,-17,22,-22,35,-26,26,-32,7,-22,17,26,27,-65,-29,16,27,46,-65,-28,12,-2,37,-4,-35,30,21,-29,60,-80,59,19,-20,-25,67,64,-83,46,-47,28,-49,40,-27,0,18,-25,33,15,-2,-37,-5,13,-14,43,-21,-23,49,5,-18,-32,2,25,-17,78,-70,16,-9,-11,4,57,-21,-22,0,-21,116,56,-52,-9,3,-80,33,11,-22,-12,8,-26,3,2,8,30,-21,-41,113,-27,25,-85,-60,-43,2,77,-11,2,-27,2,-15,-7,-7,7,60,-58,97,42,-62,-31,-47,3,32,53,-35,11,-20,-2,17,-59,48,-2,-54,3,17,54,-102,-10,6,-5,98,13,-58,-7,-4,-3,22,-13,-2,18,-63,85,-1,-87,78,67,-3,12,-32,-38,-8,14,12,-10,-4,-15,34,-41,7,54,-15,35,-87,66,-56,43,-31,17,11,-19,48,-40,19,-20,14,3,4,-31,28,-38,24,35,-17,93,-115,41,36,-72,36,-40,-11,-11,24,-52,39,3,-11,-5,16,57,15,-64,-24,-4,-9,8,26,-9,35,11,7,-3,-19,-19,18,4,-31,61,-24,-57,49,-2,-57,3,-11,-4,33,-14,-3,13,-1,-6,-11,9,-8,-1,-1,33,7,6,-8,-16,3,3,4,-15,3,-9,3,-5,-4,3,1,-8,1,3,4,-11,0,4,-4,-6,2,-1,1,-5,0,-2,3,0,-2,1,0,-1,1,-3,0,-6,0,-1,-2,-1,1,0,0,-1,-1,0,-2,-1,0,-1,-1,1,-2,0,-2,0,0,-2,0,0,0,-1,-1,-2,0,-1,0,0,-2,0,-2,0,0,-1,-2,-1,0,0,2,-2,-2,0,-2,-1,-1,-2,-1,0,-1,0,-1,-1,0,-1,0,0,0,-1,0,1,-2,-1,1,-2,-1,-1,-1,-1,0,-2,-1,-2,-1,0,1,-1,-2,0,-3,0,-1,-3,0,0,-1,-2,-1,-1,-1,1,-1,-1,1,0,-1,-1,1,0,1,-1,-2,-1,0,-1,-3,-1,-1,-1,0,-1,-2,-1,-1,-1,-1,1,-1,0,-3,-1,1,0,-1,-1,-1,0,0,-2,0,-1,-1,0
0,0,-2,-1,-1,0,-1,1,-1,-2,-1,-2,1,0,0,-1,0,0,-1,0,-1,1,-2,-1,0,-2,0,0,-1,-1,-1,1,-2,0,0,0,-1,-2,-1,-1,-1,-1,-1,-1,-1,-1,0,1,1,0,-1,-1,-1,-1,1,-1,0,-2,-1,-1,0,-1,-1,-1,-2,0,-1,-1,-2,0,-1,-2,0,-2,-1,0,-1,-1,-3,-1,1,0,-1,-1,-1,-1,-1,-1,-1,-1,0,-1,-1,-2,-1,1,-2,-1,1,-1,-1,0,-1,0,-1,0,-1,0,-1,-2,-1,0,-2,-1,-1,1,0,-1,-2,0,0,0,0,-3,0,1,0,-1,1,-1,-2,-1,0,-1,0,-1,0,-1,-1,0,-1,-1,2,1,-1,-1,-1,-1,-1,1,-1,-2,-1,-1,0,-1,-1,-2,0,-2,-1,-1,-1,-1,0,-1,0,1,-1,-1,0,-2,-1,-3,-1,0,0,-2,-2,0,-1,-1,0,0,-2,-1,-2,-1,0,0,-2,0,-2,1,0,-1,-1,-2,1,-1,-1,0,-1,-1,-1,-1,-2,0,-2,0,-1,-3,0,0,-1,0,-1,0,0,-1,-1,-2,-1,-1,0,0,-2,-1,0,0,0,-1,0,-1,-2,0,-3,0,1,1,1,-2,-3,0,0,-1,-1,0,0,1,-1,-2,-1,-1,-1,-2,-1,1,1,-1,-2,-1,2,-1,-2,-1,0,-1,-1,-1,1,0,0,-1,-2,0,-1,-1,0,0,-2,-1,-2,-1,1,0,-1,-1,-1,-2,-3,-1,-1,0,-2,-1,-1,-2,1,-1,-3,-1,0,0,0,0,-1,-1,-2,0,0,0,0,-1,-1,0,0,-2,0,-1,0,0,0,1,-2,0,-1,-2,-1,0,0,-2,-1,-1,-3,0,-2,1,-1,-1,1,0,-1,0,0,0,0,1,-2,-3,0,1,0,-3,0,-3,0,-1,0,-4,-2,-1,0,1,0,-1,0,-2,-2,-1,-4,1,-2,0,-1,0,-1,0,0,0,-1,-1,0,-1,-2,0,0,-1,0,-3,-1,-2,0,1,-1,-1,-1,0,-2,1,-1,-1,-1,-1,0,-2,0,-1,1,-2,0,0,-2,-1,-1,-1,0,0,0,0,-2,-1,-3,0,-1,-1,1,1,-2,-1,-1,1,-2,-2,-2,-2,0,-1,-2,-1,0,-1,0,-1,1,2,0,-3,-2,-1,1,0,-1,-1,-2,-2,-1,-1,0,-1,-1,-1,-2,-1,0,-2,-1,-1,-2,0,-1,1,1,-3,-2,-1,-1,0,0,-2,-1,-1,-1,-1,-2,-1,-1,0,0,0,1,0,-3,0,0,0,-1,-2,-3,-1,-1,-1,1,0,1,0,-1,-1,-1,-1,-1,-2,-1,0,-1,-2,0,1,0,1,0,0,0,1,-1,-1,-1,-2,-1,-1,0,-1,0,-1,-1,-2,-2,0,1,-2,-1,-1,0,-1,-1,-3,-2,0,-2,0,-2,-2,0,-1,-1,0,-1,-2,-1,0,-1,-1,0,-2,0,-1,-2,-1,-1,-1,0,-2,-1,-1,-1,1,-2,-1,1,0,0,0,-1,0,0,1,-1,-1,-1,-2,-1,0,0,0,-2,0,-1,1,-1,-1,-1,-2,1,-2,0,-1,-1,-2,-2,-1,-1,0,-2,-2,-2,-2,-1,1,0,0,1,-1,-1,-1,-1,-1,-1,1,-2,-1,0,0,0,2,-1,-1,-1,-2,0,-1,0,-1,-1,-3,-1,0,0,0,-1,0,0,-1,-2,-1,0,-1,-1,-1,0,-1,1,-1,0,0,-2,-2,-1,0,0,-1,-1,-2,0,-1,-1,0,-2,0,-1,0,0,-2,-1,0,-2,0,0,-3,0,0,-1,-1,-1,0,0,-2,-2,-1,0,0,-1,-2,0,-1,0,-2,0,0,0,0,-2,-1,-1,0,0,-1,-1,1,-1,-1,-2,-1,0,0,0,-1,-2,-2,0,-1,0,-1,-2,0,0,0,0,0,-2,0,-1,0,-1,0,-2,-1,0,-2,0,-1,0,0,-1,-2,0,-1,-1,0,-3,-3,-1,-1,0,-1,1,-1,0,1,0,-2,-1,-2,0,-2,-1,0,1,-1,-1,0,-1,-1,1,0,-1,1,0,-1,0,0,-1,-3,-1,-1,-2,-2,-2,2,0,-2,-3,-2,-1,1,0,-2,0,0,-1,0,-1,0,-1,0,0,-1,-2,0,-2,-1,0,-2,-2,-1,-1,0,0,-1,-1,-1,1,-1,-1,-1,0,-3,-2,0,0,1,-3,-1,-2,-1,0,0,-2,-2,1,-1,-2,0,-2,-1,-1,-1,-1,-1,1,0,1,-1,0,-1,-2,2,1,0,-2,-1,-2,-1,0,0,0,-1,-1,-1,-1,-2,0,-1,1,0,-1,0,0,0,0,-1,-1,-2,1,0,-1,-1,0,-3,-1,-1,-2,-1,-2,0,0,-1,-1,-1,-1,0,-1,-2,0,0,-1,-1,-1,-1,1,-2,0,0,-2,0,0,-1,1,-1,-1,0,-1,-2,-2,-1,0,0,-1,0,-1,1,-1,0,0,-1,-1,-1,-1,1,0,-1,0,-2,-1,-1,-1,0,-1,-2,0,-1,-1,-1,-1,-3,-1,1,-1,-2,0,0,0,-1,-1,1,-1,-2,-2,1,-1,0,-1,-1,1,-2,-1,-1,0,-2,0,-2,-1,0,0,-1,-1,-1,0,-2,-1,-1,-2,1,-1,0,-3,-1,-3,1,-1,-1,0,-1,0,0,0,-1,0,-1,-1,0,-1,-2,0,-1,0,-1,-1,0,-1,-1,-1,0,-1,-1,-1,-2,-1,-1,0,-3,0,0,-2,-1,-2,-2,-2,-2,0,-1,0,-1,-1,-1,-1,0,0,0,-1,-1,0,-1,-1,-3,-1,-2,-1,0,0,0,0,-2,-2,0,0,1,0,-1,-1,-3,-2,-1,-1,1,0,-1,0,-2,-1,-1,0,0,-2,1,-1,0,1,-2,-1,0,-1,1,-2,0,0,-1,0,0,-1,1,1,-1,-1,-1,-2,-1,-1,0,0,0,-1,-1,-1,-1,-1,0,-1,-2,0,-1,-1,0,2,0,-1,-2,-2,0,0,-1,-2,0,-2,-1,0,-2,-1,0,1,-1,0,-1,-2,-1,-1,-1,-1,-2,-1,0,-1,-1,1,-1,-1,-1,-1,-2,-1,0,-2,-2,0,1,-1,0,-1,-1,-1,0,-2,1,-2,0,1,0,-1,-1,0,-2,-1,-1,-3,0,0,-1,-2,-1,0,-1,0,-1,1,-1,1,-1,0,0,0,-2,-2,-1,-1,0,0,-1,-1,2,-3,0,-1,0,0,-2,-2,-1,-1,-1,0,-1,0,1,0,-1,-1,-1,1,-2,0,-2,0,0,-1,-1,-1,0,-1,1,-1,0,-1,-2,-3,-1,0,2,-2,1,0,0,-1,-1,-2,-1,0,-2,0,0,0,0,-1,-1,-1,-2,0,-1,-1,1,-1,0,0,-2,0,1,0,0,0,-1,-1,0,0,-1,-1,-1,-2,-2,-1,-1,-2,-2,-2,-1,-1,-1,-1,-2,-3,0,0,-2,-1,-2,-1,-2,0,0,1,-1,-1,-1,-1,0,1,0,-1,0,-1,-2,-2,0,0,-1,-2,0,0,-2,-1,-2,-2,0,0,0,-2,1,-1,0,-1,-1,0,-1,0,-1,-3,0,-3,0,-1,0,-1,-1,-1,-1,1,0,-2,0,-2,-2,0,-1,-2,-2,-1,-1,-1,-1,-1,0,0,-2,0,-1,-1,-1,0,-3,0,-2,0,-1,-1,-3,-1,-1,0,-1,-1,-1,-3,0,1,0,1,-1,-2,1,0,1,0,0,-1,1,-1,-3,-2,0,-1,0,-1,0,-1,-1,-2,-2,0,0,0,-2,-1,0,-1,0,-2,-2,0,0,1,0,1,-1,0,-1,-1,0,-1,0,-2,0,-1,-2,-1,-1,0,0,1,-2,0,0,-2,-2,0,-1,-1,-1,-1,-1,-1,1,-1,-1,-1,-1,-1,-1,0,-2,-1,-1,-1,1,-2,1,-1,0,0,0,-1,-1,1,-3,0,-1,1,-1,-1,-2,-2,0,0,-1,-1,3,-1,0,-2,-1,-1,-2,-1,-2,0,0,-1,-1,-3,-2,-1,0,-1,-2,-1,-2,0,-1,-1,0,-1,-2,-1,-2,0,1,1,0,-1,-1,0,-2,-2,0,-1,-1,-1,1,0,0,-2,-2,-2,0,-2,1,-1,-1,0,0,1,0,-1,-4,0,-1,-1,-1,-1,-1,-1,-1,0,0,-2,-1,-2,0,-1,0,-1,-2,1,-1,-1,-1,-1,0,0,0,-1,-3,0,-1,0,0,-1,-2,0,1,-2,-2,0,0,4
-2,0,1,-1,-2,1,-7,5,10,-5,4,-4,4,27,-41,3,-7,-5,11,-1,-7,-1,9,-5,0,-7,8,-2,-7,-2,1,-1,4,-27,5,1,-4,2,1,-5,-1,5,-1,2,-2,2,0,-1,1,9,-38,0,-2,1,10,-1,14,-22,8,12,-5,11,5,-4,2,2,-1,2,-7,-3,3,-6,-2,2,5,-3,-5,0,0,-4,0,1,-2,-2,1,-2,0,-1,-3,-1,18,-6,-3,-1,2,-1,2,16,-12,-1,-5,7,-3,-3,5,13,-23,6,1,-10,5,3,-7,-3,1,-5,1,-7,1,-2,3,-4,2,0,0,-5,0,0,-4,-4,10,-15,1,-4,-2,5,-2,-2,2,1,-5,2,-5,1,-6,-2,-2,18,-29,0,-4,1,16,-2,-2,-1,2,-8,7,-7,-1,2,-2,-3,1,1,0,6,3,3,-6,6,1,-4,3,-7,-1,11,-4,-3,-3,4,-2,-4,7,-6,6,-8,-4,1,-6,9,0,-8,5,-2,-2,-3,-4,-2,-4,3,-2,-6,5,-4,-2,-1,4,-21,-1,5,15,-3,3,-5,5,5,-3,3,-13,26,-27,-1,-3,-7,14,-2,-8,6,3,-6,4,-3,1,-6,3,11,-12,4,-2,-1,4,0,-6,-7,4,-5,-2,12,-5,26,-42,-4,6,-3,9,0,-4,-1,10,-32,6,-11,3,0,0,-4,3,3,-2,0,2,-2,-1,-2,-2,1,1,-2,0,0,-1,-2,3,-2,-2,-3,2,0,-1,-1,4,-21,3,0,-3,17,-42,0,23,-40,10,2,-9,16,11,-9,4,3,0,4,-11,4,2,-1,-16,1,9,-5,0,5,-3,3,0,2,0,-2,2,-3,0,-1,-1,2,-2,2,-2,0,15,-38,0,-1,1,11,0,11,8,-9,-8,7,-5,11,5,-12,0,0,-4,13,-47,9,-4,-2,8,-13,1,-3,3,2,4,-3,1,7,7,-6,-19,5,-6,2,14,-11,39,-51,-5,20,-8,19,-1,4,-8,-3,-3,-7,-13,41,19,-21,-52,-50,45,34,37,-15,19,-22,56,44,27,-43,0,-18,2,97,-57,-14,-15,-38,-28,37,-56,25,-38,1,34,18,72,-57,-31,3,-8,-3,-6,-87,5,78,-14,-29,3,44,-14,16,-51,18,29,3,18,-47,-16,0,-68,-24,12,1,29,-23,71,-6,-11,13,-85,4,18,-22,6,48,-21,42,-11,-21,10,-43,11,-5,-1,22,16,48,18,-49,-16,-7,-12,-1,16,-2,-14,34,-55,-10,21,18,-27,0,0,26,34,-39,17,-19,16,-16,29,10,-36,58,-74,-31,8,28,33,26,-18,-7,-3,-19,9,5,10,-21,-3,-7,-13,15,62,-36,45,-6,-17,-6,36,-32,-26,16,-25,-6,25,-16,-11,3,2,-4,-45,57,-13,19,-34,-24,-38,2,10,24,22,-14,24,-37,-8,-16,25,-3,-19,13,11,18,3,-24,20,12,-70,-6,-24,22,26,9,-21,-18,67,-15,23,-22,-32,11,4,-19,26,14,-6,-1,-36,8,-8,-34,-15,-2,29,11,19,-29,8,35,-55,6,0,6,45,-18,-42,23,17,-11,23,-8,1,-10,11,-4,-4,11,-29,29,5,31,-23,-28,1,0,27,-14,-7,30,-38,9,5,-21,14,-3,5,-26,19,-23,22,-9,-27,19,-3,10,6,-27,3,-13,3,-15,-25,13,13,-5,19,2,-16,16,-30,12,-9,-2,22,-2,6,-14,-3,3,0,-11,8,-9,17,22,-12,-3,-7,6,-1,4,0,-10,3,-13,23,1,-16,22,-10,-16,22,11,-42,13,-18,30,-14,-5,-5,-8,10,6,-2,-17,8,-16,11,-11,-15,-8,-2,-15,16,-3,-9,-10,7,22,-10,-17,10,14,4,-3,24,-4,19,-33,18,4,-2,26,-20,-2,-4,15,-18,16,-13,-2,10,-15,19,-10,15,3,6,-3,-19,1,5,11,-10,-8,-1,-6,-2,4,8,1,10,1,-3,5,-13,-17,0,7,-5,1,-14,8,1,-1,-20,-7,10,21,0,3,-16,-7,14,7,-12,-1,-9,4,14,1,5,-13,11,-21,6,-8,-7,19,-23,-4,8,-7,-2,6,-17,5,8,3,8,5,-27,-2,-9,-3,2,14,21,-22,0,-2,21,-22,8,-2,-8,-7,7,9,-20,15,-8,-7,10,-20,9,-14,-7,18,0,-14,2,22,-8,-35,3,19,-2,36,8,-35,-7,14,-11,8,22,-16,4,12,-13,-1,-14,-22,28,18,-21,7,16,5,-25,-9,16,-2,3,-8,-17,9,9,7,-13,-4,-12,12,-1,-14,21,-2,11,-5,4,-12,-19,6,-6,9,-12,-2,-12,-8,6,-6,32,-10,2,-12,-7,-15,23,-25,-1,0,-9,18,-5,9,-30,0,34,3,-9,-22,19,14,5,-17,-27,32,-3,12,-4,-5,1,-5,-10,-12,-7,8,3,7,-11,34,-31,0,17,-11,30,-44,-9,24,-8,-4,-6,6,18,5,8,-17,-25,12,7,2,-9,-5,11,-9,-4,-10,5,8,3,-18,-12,19,9,-10,-8,-2,2,-4,8,-4,-8,8,-2,-7,0,11,-9,2,-17,5,33,-31,25,-12,-14,-4,-1,5,-8,3,-1,11,-17,2,-11,10,-12,6,12,-2,17,-23,-8,13,-10,1,2,-24,6,15,-19,9,11,-13,-12,14,-14,7,9,-7,-3,-7,-3,-5,-3,2,5,10,-12,21,-12,-11,6,16,1,-2,4,-19,37,-35,0,15,-7,19,-17,1,-10,-7,10,-5,-4,18,12,-15,11,-10,2,29,-31,4,-6,-3,3,0,-4,-11,7,2,-10,-9,-19,17,9,8,-7,-10,9,-22,26,-13,9,-5,-1,-3,-23,20,21,-7,-3,0,-2,10,-10,2,-9,-4,13,-1,-13,8,-8,4,11,-15,-7,11,-30,-2,9,1,-5,2,-7,-11,24,-4,5,-9,-4,3,6,-20,19,-15,35,-9,-21,8,3,3,-18,10,-17,6,4,-3,-3,-20,20,-24,26,-13,-4,41,-24,4,7,-7,-7,-7,5,-6,-5,5,-5,8,7,1,1,-14,10,9,-10,14,6,-8,-1,-18,-10,13,-4,16,-37,5,1,3,18,-3,-4,11,14,-17,3,-8,-2,0,-4,4,17,-19,-18,-2,6,6,-1,6,-18,-1,6,-5,17,6,5,-15,-22,10,9,16,-48,-2,-2,11,-21,32,-8,-17,31,-29,33,-11,-9,-2,-10,-8,-8,-5,9,-18,8,0,-16,14,22,-7,-7,5,-23,20,6,-11,14,-16,-1,5,-14,-5,-12,25,-16,-2,5,-2,10,0,-3,-7,16,-12,-1,-8,12,5,-14,-9,5,2,9,-17,-3,34,-24,6,-4,9,6,1,-6,-12,11,-5,-5,3,-11,11,9,-21,-12,23,-4,7,-1,-2,1,-2,-9,-5,8,-3,1,-13,-12,-16,45,12,-11,-6,-5,8,4,3,-15,-7,-2,5,2,7,-22,5,-2,-22,42,1,-5,-6,-26,32,10,-21,-3,-13,-2,9,-2,-11,4,-5,-20,16,2,14,-4,-14,0,-8,4,14,9,-16,-1,1,-9,-1,16,-12,-4,-18,44,-4,-23,11,-6,13,-7,-5,-13,0,3,12,0,-12,5,8,-13,-6,-1,8,23,-18,-4,-6,32,2,-11,-8,-16,8,21,-4,-2,0,4,0,-22,13,-22,27,-62,55,7,-10,7,-22,-3,3,5,-7,-3,5,15,-16,-8,12,-7,-10,7,-28,35,41,-16,6,-12,-16,19,-7,-4,-2,-4,-9,1,-26,22,-9,0,-12,-4,7,1,-11,3,2,-2,-18,32,-4,-54,63,-24,0,0,-26,0,8,2,-1,2,-1,10,-14,-6,-2,4,3,-32,18,19,-4,6,-12,21,-7,-55,10,31,20,24,-17,-4,-1,-14,3,1,-3,10,-44,-10,-14,38,39,-53,1,33,-19,-13,3,-1,16,8,-9,6,-5,-3,7,-8,-4,7,5,-1,-7,16,-10,3,-4,7,-1,-8,14,8,51,-25,23,43,-9,-22,-6,-15,-9,-22,23,42,-17,-37,11,-6,-2,20,-13,0,-33,11,-9,-22,8,18,-5,-15,2,10,2,-13,7,-17,-5,-2,-4,15,-4,-11,8,9,-28,-4,2,3,2,-4,-7,-1,8,-5,-1,3,3,-3,-5,3,12,-16,2,-6,8,2,-8,6,-5,0,-6,2,-3,-4,4,2
1,0,0,0,0,0,-1,-1,0,1,-1,-1,0,0,-2,-3,1,0,0,0,-2,-1,-1,-3,-1,0,0,-1,-1,-1,0,0,-1,0,-1,0,1,0,-1,-3,1,-1,0,-2,-1,0,0,-2,0,0,0,-2,-1,1,0,-1,0,-1,0,1,-1,0,0,-2,0,0,0,-1,-1,0,-2,-1,0,-1,-1,-2,-1,-2,0,-1,0,1,0,-1,-1,1,-1,0,-1,1,1,-3,-1,0,-1,-1,-2,-1,0,0,0,0,0,-2,-1,0,-1,-3,0,-1,-1,-1,-2,0,0,-2,-2,0,1,-3,-1,-1,-1,-1,-1,-1,0,-2,0,-1,0,-1,0,-1,-1,0,0,1,1,-4,1,-1,0,-1,0,-2,-1,-1,-1,0,0,0,-2,-1,1,-1,-2,1,-1,-1,0,-2,-1,0,-1,0,-1,-3,0,-2,-1,-1,0,0,-1,0,-3,-1,0,-3,-1,0,-1,-2,0,0,-1,0,-2,-1,-1,-2,-1,1,-1,0,1,1,-1,-2,-1,0,-1,-1,0,-2,-2,-2,-1,0,-1,-1,-1,-2,-2,-2,1,-2,-1,-1,-1,-1,-2,0,0,0,-2,-1,-1,-1,-2,1,0,-1,-1,-1,0,1,-1,-2,1,-3,-2,-2,-2,0,-1,-2,1,-1,-3,1,-1,0,0,-1,-1,0,-2,-1,0,0,-2,0,0,-1,2,-2,-1,-1,-2,0,1,-2,-2,-1,-1,-1,-1,-1,0,-3,-1,0,0,0,-4,-1,0,-1,-3,0,-1,-1,-1,-1,0,-2,-2,-1,1,-1,-1,-1,-1,-2,0,2,-1,1,-3,0,1,0,-1,-2,-1,-1,-2,-1,1,-1,-2,0,-1,1,-2,0,0,-1,-1,-1,-1,1,-1,-1,0,0,-2,1,0,1,-4,-1,0,0,-1,0,-1,-1,-1,-2,0,-1,1,-2,2,-1,-1,-1,-1,0,-3,0,0,1,-2,-1,0,-1,-1,0,0,0,1,-1,-2,0,-1,0,0,0,-1,-1,-1,-1,-3,-1,0,0,-1,0,2,0,-2,-1,0,-1,-1,-1,0,-1,-1,0,-2,1,0,1,-1,0,-3,-1,-1,1,-1,0,-3,0,0,-3,1,0,-2,-1,1,-1,-2,-1,-1,0,0,-2,-2,0,-1,-2,1,1,-2,0,-1,-1,-2,0,1,-2,0,-1,0,-1,-3,0,0,-1,-3,0,-2,0,-2,1,-1,0,-1,-5,3,17,-13,0,-7,-6,8,1,0,0,-4,-4,2,-10,5,4,1,-2,-1,2,-5,6,1,-4,-5,-5,0,0,1,-2,-2,1,1,0,5,-6,6,-6,-4,1,2,-3,-4,0,-2,-2,1,-5,0,-1,-6,5,1,-13,-23,31,10,9,-5,-17,-1,-5,3,-9,7,-3,7,-22,-4,32,3,-1,-6,-9,8,-3,-11,-7,6,10,-5,5,-12,-3,3,-6,0,2,8,-15,2,6,-5,-4,-7,10,-5,4,-4,-1,4,-4,-1,8,-4,2,-2,-5,-5,-8,4,-4,0,-4,15,-5,8,-6,-6,-9,7,1,6,-4,-5,-3,-14,10,10,8,6,-7,-6,0,-1,-1,-8,0,-2,11,-6,-10,-5,1,4,-7,2,5,2,-3,0,-5,-4,14,2,-2,-8,-11,5,7,-6,-1,0,-7,5,0,0,2,1,-4,10,2,-8,-6,2,-4,7,-12,0,0,-3,2,1,-4,10,-7,-2,6,4,-2,2,-5,-2,2,-7,-1,-1,4,5,2,-5,1,-6,1,-4,-4,-2,3,4,1,-11,3,-5,5,0,-17,-4,18,4,-2,0,-2,-4,6,-12,-2,3,-8,9,-10,-4,-1,-7,15,12,5,2,-15,-1,3,-6,4,-1,-9,6,-3,2,-1,6,-3,-6,10,10,-2,-8,-6,-1,-3,-2,-8,3,1,-6,3,0,-7,4,-4,3,-2,-6,5,-6,-5,1,7,-9,0,-7,2,5,1,-5,4,0,-7,-4,1,-3,-3,2,-3,-5,-6,-3,3,-3,5,14,-4,1,-5,0,2,3,-1,-1,-9,1,-4,4,-14,15,8,-4,6,-8,3,-3,-2,-7,4,-3,2,-7,-3,1,9,-2,-10,5,-3,1,-7,-3,-2,-2,8,0,1,-3,-2,2,2,4,-3,13,-5,3,-4,-11,1,-4,-3,-6,0,-9,-1,2,-6,-2,21,-8,16,-1,0,2,-10,-6,-4,0,-9,5,-10,2,-3,-2,-1,4,5,-2,-1,1,13,0,-2,-3,-2,1,-1,2,-12,-2,2,-3,2,-3,-2,5,-3,-5,-3,-3,6,0,-3,5,-3,-1,5,4,-6,3,0,-5,3,-2,-6,0,2,-4,1,-8,-1,3,-2,2,2,-9,5,-12,9,2,6,-2,-5,-3,-5,9,4,-7,6,0,2,-5,0,5,-1,-3,-11,7,-1,3,-2,-5,3,-2,-6,-3,-6,-4,7,-5,1,5,-3,-3,-4,-1,3,-1,-3,-3,1,2,-3,-2,4,10,0,0,-2,-3,-7,4,1,-1,-3,-6,-8,-1,6,-2,4,0,4,0,-4,-7,7,-2,-1,3,-5,0,-1,-2,-3,-6,7,0,-3,2,3,-2,0,-8,2,3,-7,4,-9,-8,3,7,-2,8,-5,18,-5,-5,6,-5,-3,3,-2,-5,-4,9,-4,-14,12,5,-4,-6,-2,-4,7,-10,3,3,-2,-1,0,-5,6,-4,-2,-10,7,6,-4,3,1,-7,-1,-2,-3,2,-4,2,-1,2,-4,-2,-2,4,9,-3,4,-2,6,-4,-2,-4,-4,3,-1,-2,-8,1,0,-2,3,5,-5,3,-3,-5,-2,2,-2,-2,-2,-1,-3,6,-12,0,0,-4,14,-2,2,0,1,-3,4,0,-7,1,0,-1,-3,-3,-1,-1,5,3,0,-2,-9,2,3,-3,-6,1,-1,0,-4,6,-6,0,-9,8,2,5,4,-13,0,-8,2,-3,7,-7,1,5,-9,-3,1,2,1,0,-1,1,-7,-3,2,-3,-2,5,-11,0,-1,-3,-4,-3,-3,9,-3,2,2,1,4,-11,2,5,-5,-5,7,-8,3,2,-4,0,-2,-6,6,1,-8,6,1,4,-3,0,-1,1,2,-4,4,-8,0,-1,2,-10,7,10,0,0,2,-10,-1,2,3,-4,-4,-1,1,9,-4,5,-2,10,1,-5,-5,-8,6,0,-6,-4,1,-2,3,-5,-10,2,5,-5,-4,0,-7,4,-3,5,-3,-3,7,0,0,-2,-5,2,1,-8,15,-1,-4,-2,-6,1,-1,-3,-1,5,-9,4,-3,5,2,2,-5,-7,7,4,-2,-4,-4,-7,0,0,2,-8,12,-8,7,-1,0,4,-1,-4,-1,1,-9,2,-4,0,-11,6,-3,-5,-3,2,8,5,3,-1,2,-3,-4,0,-3,5,-6,-1,-5,3,-3,-7,4,8,-7,-3,-1,-7,1,1,2,-1,-3,3,-7,1,-2,1,-1,6,0,6,2,-2,-2,-7,-1,-3,4,-3,0,-4,0,-10,3,-5,5,1,-2,-4,-4,7,-1,2,-1,-3,-3,6,-6,-4,4,0,0,5,-5,-7,-2,-3,-1,0,-5,0,-4,-8,6,-4,3,-2,9,1,-13,5,2,3,-2,-5,-5,0,2,-1,11,-13,3,-1,-4,47,-50,-25,60,-16,13,29,-111,30,45,-32,18,30,-85,37,-15,34,-2,10,-15,-32,5,-23,0,-11,6,4,39,-50,33,11,7,-8,5,0,-9,-3,7,36,-39,-4,5,-17,10,1,-3,-1,4,-9,9,-15,5,-3,0,-9,0,7,1,-10,3,-3,2,-6,0,1,-2,2,-14,1,-3,1,6,-2,6,-4,0,4,2,-6,0,0,0,-4,4,-1,-1,-3,3,-1,-3,-1,1,-1,-1,-2,-1,0,-1,-1,0,0,-2,-2,2,-2,-1,-2,-1,2,-1,-2,0,0,1,-1,-1,0,1,-3,0,0,1,-3,-1,-1,-2,-1,-1,0,0,1,0,-1,0,-3,0,-1,0,-1,0,-1,-1,-2,0,1,-1,-2,-1,0,0,-1,1,0,0,0,-1,0,-1,-3,-2,-1,0,-2,0,0,0,-1,0,1,0,-2,-1,-1,0,-2,-1,-1,0,-2,-2,-2,0,-1,0,1,1,-2,-2,-1,-1,0,0,1,-1,-1,-2,-1,-2,-1,-1,-2,0,-2,0,-1,-1,-3,-1,1,0,-1,-2,-2,0,-1,0,1,0,-3,-2,-1,0,-1,-1,3
0,1,-1,-2,0,-1,0,-1,0,0,-3,3,-2,3,-2,-4,0,0,2,-2,0,-3,1,-3,-1,0,0,-2,-2,0,0,-3,-1,2,-1,-2,-1,-1,1,-2,-1,0,-1,-1,0,-2,1,-2,-1,1,-1,-2,-1,-2,-4,2,-2,1,1,-2,-1,0,1,-1,-1,0,-1,-3,0,0,1,-1,-1,1,1,-3,-2,1,-1,-3,-2,-3,6,-3,0,-3,0,-1,0,0,-1,-1,-1,0,-1,-3,0,0,-1,-3,0,0,-1,-1,-4,4,-1,-1,0,-3,-2,-4,1,1,0,-2,-2,-2,0,0,-1,3,-2,0,0,0,-1,-2,-1,-1,-1,-1,1,-3,-2,0,-1,0,-2,-2,-1,-1,1,1,-2,-1,-2,-2,1,-5,3,0,-1,-1,-4,2,1,0,-5,-1,0,0,-2,0,0,0,-2,-1,0,0,-3,-4,4,0,-1,0,-2,1,-2,-3,0,1,0,0,-3,-1,-1,0,0,-2,-4,-1,-2,4,-1,-2,-2,-1,-3,1,1,-1,-2,1,1,-2,-3,0,2,0,-2,0,1,0,-2,0,-1,-2,-2,-2,-1,2,-2,0,-1,-2,0,0,-1,-1,-5,5,2,0,-3,-2,1,-1,0,0,0,-6,2,0,-2,0,-3,-1,2,0,-4,-3,1,0,-2,-3,0,0,-1,0,0,1,-3,0,0,0,-3,0,0,-3,-1,4,-2,1,-5,-2,1,-1,-1,-1,0,0,1,-1,0,2,-2,-2,0,2,-3,-2,0,1,-3,-1,1,-1,-1,-3,0,2,-2,1,0,-1,-1,0,-1,1,-2,-2,-8,7,-2,0,-1,-3,-2,1,0,6,-4,0,2,-4,2,0,-2,18,-5,-18,-11,-18,19,-22,16,8,-12,22,14,-23,-10,-15,2,-1,10,27,58,-62,-37,-10,-16,28,8,-9,5,-2,0,11,-25,22,-17,-12,12,-8,13,-8,5,-17,-9,46,-59,35,15,-21,64,-7,-32,10,-24,17,1,-9,-2,-23,56,-5,-21,1,-15,6,11,-33,41,4,-57,-2,-13,27,15,28,-9,-14,-6,9,1,-3,28,14,-8,-14,-11,-18,14,3,4,18,-74,19,5,-9,19,-8,29,-6,-4,2,53,-79,-24,-5,-25,54,-2,-5,-33,-16,7,24,-38,11,16,16,-20,-1,-1,10,-1,-11,13,-3,10,46,-53,-9,9,-49,68,-4,-36,20,-4,-10,24,-6,-6,11,-5,-9,16,-6,56,-85,-6,3,-27,25,3,-12,-15,46,1,-25,2,-29,39,1,-14,24,12,-1,-56,-7,-16,60,-15,42,-53,-11,29,-23,-6,-6,11,10,-8,17,-28,-3,4,8,11,-80,-3,-2,18,85,-37,-20,-8,-18,1,15,2,3,10,-33,17,-1,-1,1,48,-68,4,58,-41,-44,57,-15,37,-3,-8,-22,51,-54,32,-12,-9,18,-23,-12,4,61,-37,40,-57,20,-4,-16,-5,5,-22,48,-51,-17,35,-32,9,27,-47,-15,46,-20,18,-18,-32,68,13,29,43,-93,-3,-16,32,-41,66,32,13,11,-39,-4,-16,21,12,-60,66,-11,55,-125,9,53,-24,30,-24,12,0,16,-30,15,-25,22,-4,2,-31,47,-59,6,9,33,-71,39,-40,12,59,-39,-2,-1,11,34,-7,-5,-30,-35,79,-37,-6,22,-24,35,-15,-38,-28,31,18,13,-1,-2,-64,-23,5,-23,40,30,-11,-10,-10,1,34,-22,60,-58,24,2,-9,23,-17,-17,41,21,-42,34,-67,-18,23,-13,28,9,-43,40,-79,84,-15,-29,28,-8,36,-13,8,-12,31,-8,0,-46,17,4,4,27,12,-16,-65,52,58,-37,38,-47,-22,37,51,-76,15,-27,-9,29,-25,20,-35,-11,-12,12,-10,73,-82,-9,-3,43,-40,-29,45,14,-14,19,-39,29,-42,2,37,-51,68,-20,21,-67,-7,42,-32,-10,47,-68,38,-40,67,-52,-28,0,24,-6,-3,20,-25,50,5,6,-28,16,-21,-28,21,35,-25,-11,44,28,4,-12,-7,-28,59,-71,-49,7,-14,28,25,-44,65,-9,-18,-4,9,12,4,-6,-37,65,-24,55,-12,-68,-17,-5,24,65,0,-15,-36,-53,25,-13,3,18,9,27,-20,-1,13,-53,7,5,-11,12,-24,38,-23,-12,5,37,26,-40,8,-27,-12,31,-51,14,6,33,-51,10,-16,-24,48,-22,-1,12,-10,-17,31,5,-11,102,-102,-6,4,-6,47,-37,-27,-22,20,3,108,-72,-32,30,11,-9,-9,-7,-8,-9,31,13,-85,39,-7,23,29,-36,6,23,-33,43,-47,12,-32,64,-54,-29,3,-30,30,58,-38,6,49,-62,42,-12,22,-2,23,-63,-19,-5,42,-27,52,-58,90,-68,-18,-23,-12,48,1,7,-24,10,-10,-2,18,3,61,-26,-47,26,-9,27,-15,46,-59,3,-2,-15,16,-3,19,8,-12,77,-82,27,-34,-43,5,11,12,2,9,-11,-11,-9,-45,60,1,23,2,70,-69,-27,-11,-15,16,31,-3,-23,38,-36,19,-57,44,15,24,-40,25,2,-18,32,12,-51,70,12,-67,-32,2,3,20,-28,-10,-4,61,-2,28,-67,-69,63,6,24,-24,16,-50,58,-47,18,40,-59,39,-9,-19,10,34,-4,15,-37,31,6,-12,6,-3,-2,14,-11,-64,52,-16,-18,-1,-23,-1,24,19,-13,34,-56,12,24,-81,47,-9,7,-14,37,24,-28,-48,11,48,-14,27,3,49,-40,13,-22,4,-12,52,-3,-39,26,-12,2,-12,4,4,6,-18,-75,47,-24,-12,-23,21,-8,20,29,-26,-42,24,35,-54,4,-24,-13,68,85,-111,-3,31,-54,92,-18,26,-57,-5,-2,4,10,-20,-10,40,16,-6,43,-22,-9,-2,33,-11,-18,-9,21,-5,16,-35,-3,1,26,-28,45,-23,8,15,-20,-6,-51,22,-19,17,-32,20,-10,-53,66,1,-1,-3,-65,11,-1,-7,21,22,-42,-11,25,-25,-6,4,32,-8,28,-34,8,-26,21,15,-7,4,13,-21,7,31,-21,-53,10,0,14,7,-10,34,-31,12,14,23,-46,14,49,-29,62,-36,33,-30,-1,44,-31,-17,-10,11,-16,-14,12,0,-8,6,-8,6,-9,-4,-3,2,2,-9,0,9,-6,-2,-3,4,-1,-5,3,-1,-1,0,-1,1,-2,1,0,0,2,-5,-1,2,0,-4,2,1,-1,-3,1,0,0,-1,-3,0,0,0,-2,1,1,-2,-1,0,-2,-1,-3,1,1,-1,-3,-1,0,-2,1,1,-1,-1,1,-2,0,-2,-2,3,-1,-2,-2,-2,-1,-1,-2,1,0,-3,-2,-1,-1,-1,0,0,-1,-1,0,-2,-1,0,0,0,-2,-2,1,1,-1,0,-1,-3,0,-1,0,0,-2,-3,-1,0,0,-1,0,-2,0,-2,-1,1,-3,-1,0,0,-2,0,1,-1,-3,-1,1,-1,-2,-1,-1,1,-1,0,0,-1,-2,0,0,0,-1,-2,-1,1,-2,0,-1,-1,-3,0,0,0,-2,0,1,-1,-1,0,0,-1,-1,0,1,-2,-1,-2,0,-2,0,-2,-1,0,-3,0,0,-1,-3,0,0,0,-1,0,0,-2,-1,0,1,-1,0,0,0,-2,-1,0,0,1,-3,-1,-1,-2,-3,-1,1,2,-3,0,1,0,-3,0,0,1,-1,-2,0,1,-3,0,1,-1,-2,0,0,1,-1,-1,-2,0,-4,1,1,-1,-1,0,1,-1,-2,0,0,0,0,-1,-2,-1,-3,0,1,1,-2,-1,1,1,-2,-1,1,1,-2,-1,-1,-1,-1,-1,2,0,1,-1,1,0,-2,-1,-2,-1,-2,-3,-1,0,-1,0,0,-2,-2,-2,0,-1,-3,0,2,0,-1,0,-2,0,-2,-1,0,1,-3,0,0,1,-2,-1,0,0,0,-1,0,-1,-1,-1,0,0,-1,0,0,-1,0,-5,5,-1,0,1,-3,-1,-1,-1,-4,1,-2,0,0,-3,-2,0,-2,-1,1,1,0,-2,0,1,-4,4,-2,0,-2,-4,-3,-1,0,-3,2,-1,1,-2,-1,0,-1,-1,-2,0,-1,-2,-1,-1,-2,-1,0,1,0,-4,-3,-2,4,-1,1,-3,-1,-2,0,1,-1,-2,-1,1,0,-2,-3,3,0,-2,-1,-2,1,-3,-3,10,-7,0,-2,-1,0,0
-2,-1,0,-1,-1,-1,0,-2,-1,-2,-1,1,-1,-1,-1,-1,-1,-2,-2,0,-2,-1,0,-1,-1,0,0,-1,0,-1,-1,0,0,-1,-1,0,-2,-1,-1,-1,0,-1,-2,-1,2,0,-1,-1,-1,-1,0,-2,0,-3,-1,0,-2,1,0,-1,-1,1,-1,-1,-1,-1,-1,-1,-2,-3,-2,0,-1,0,-1,-2,0,-1,-2,-1,-1,-1,0,-2,-1,0,-1,0,0,-2,-1,0,-1,-1,0,0,0,-1,-1,-2,-1,-1,-2,-1,-2,-1,-1,1,-1,0,0,-2,0,-1,0,0,1,-1,-1,0,-1,0,-1,-2,-1,0,-2,-1,0,-1,-1,0,-2,-1,1,-1,-1,0,-1,0,-1,-1,-2,-1,0,0,-1,0,0,-2,-1,0,-1,-1,0,-1,-1,-4,0,1,-3,-1,2,-13,-5,-9,20,6,-1,-4,-7,0,7,4,-5,3,-3,1,-5,-4,2,3,-1,-3,-12,-9,8,-7,1,-23,38,5,6,-6,-23,6,0,10,-13,6,-8,12,-5,-8,5,6,-6,-5,-4,5,-17,31,-3,-12,25,-5,3,1,-8,-3,-2,-8,-3,-1,-1,10,-8,-2,-4,3,2,-9,-2,1,-3,1,4,1,-9,0,1,-1,0,-5,2,3,-9,-4,-1,2,-2,-18,48,-5,6,0,-10,-10,4,-4,-1,12,2,-8,-8,-3,2,15,-11,-5,-24,21,0,9,-12,-13,-16,-1,3,13,-3,-9,1,0,-9,3,10,-7,9,0,5,-1,-8,6,-8,-8,11,-9,4,-4,1,-2,13,-5,7,-10,8,1,9,-22,3,-7,-2,-3,-8,10,-9,4,-9,17,-6,-3,-6,0,-5,15,-7,3,5,7,-4,-5,-11,21,-15,-3,8,-6,11,0,-16,9,-7,-2,3,-3,5,-5,6,-17,14,-9,-4,11,-6,-1,7,-11,-8,8,-12,2,5,-2,1,-8,-16,-6,5,2,0,-12,6,12,-27,18,-19,7,8,-4,7,-10,4,-16,-5,-4,19,16,0,-19,8,5,-7,4,14,-18,5,9,-12,-2,8,-3,3,8,3,-13,-4,1,3,4,5,1,-2,4,0,6,-15,-2,11,-2,-7,4,-7,-5,1,-3,10,-21,-6,-14,6,-4,-4,11,-15,11,-5,17,-21,50,-15,5,-11,-9,-2,-4,1,-4,8,-5,8,-13,1,-8,9,-12,7,-4,4,-2,-1,4,-2,12,-6,-14,8,-7,5,2,-3,5,10,3,0,-12,4,-7,2,2,3,0,-17,-5,-3,1,3,-2,-5,11,-5,0,0,-7,-2,-1,-7,-2,13,-10,-4,13,-5,-2,-3,2,15,-13,3,1,0,0,-2,7,-9,3,5,-3,12,-18,-1,-12,-5,14,-4,-2,4,-6,-11,6,1,-3,2,11,-17,0,8,-12,26,5,-25,7,-14,7,-19,7,2,-3,4,-3,10,3,4,-19,-8,-8,21,0,-16,9,3,14,-18,-12,13,-15,18,-6,-2,0,-2,0,9,0,-7,1,0,2,-10,3,-10,-3,-2,3,4,-13,-2,3,-12,5,-8,19,-10,-5,-8,-2,-9,3,5,7,10,-16,4,-2,-4,-1,1,-4,11,5,-1,-6,4,-4,7,1,-6,10,-27,-7,6,-5,19,-5,-5,5,10,-11,-9,-3,9,10,-1,-9,-8,0,-9,8,-6,5,19,-5,0,-8,2,1,2,-6,9,-3,3,-22,-7,10,-2,1,-6,1,5,-8,5,5,-4,15,-18,4,4,-5,8,4,-6,16,-26,3,-8,2,5,-2,5,0,2,-7,3,-5,-2,-1,-9,-2,4,1,-2,-4,10,-13,4,-3,-11,2,4,8,-6,-1,-13,-3,2,8,-9,8,3,-11,1,2,-1,-3,15,-7,5,-5,9,-7,1,-1,-3,0,-16,6,1,1,4,7,-3,-10,-1,3,1,11,-5,-2,12,-21,1,-6,1,-4,3,-1,-9,17,-5,0,4,-3,8,-2,-10,-6,-3,-5,7,8,-4,2,1,2,-1,-3,-9,7,9,-6,2,-1,-16,13,-20,5,6,1,8,-14,6,-16,5,-3,8,-5,-6,-1,2,1,-4,-2,-7,-3,4,0,2,2,-9,6,-31,2,3,3,8,-2,4,-1,17,5,-12,1,-7,0,7,0,5,-14,-1,-4,11,-3,-7,-1,2,-5,1,-1,3,-1,5,-6,-3,17,-11,7,-13,9,-1,-3,13,-6,6,-11,1,-1,5,-5,-5,6,-10,11,1,-5,5,-6,2,-23,3,1,-5,7,-2,-10,-3,3,-4,2,-7,0,-3,2,-2,-1,13,-6,-9,0,-7,19,-2,-7,-1,1,4,0,-1,0,-4,-1,-3,-15,7,-10,6,-3,-13,22,-5,-16,11,2,-5,13,-16,0,6,4,1,-3,-6,-1,7,-14,10,-8,-5,8,3,9,-19,-6,0,6,0,0,2,-5,11,-24,-7,-1,-19,17,-11,4,8,-4,-9,1,4,1,6,-3,1,11,-15,-5,0,13,-4,-2,2,-3,4,-5,4,-1,10,-12,1,-9,-8,-6,-2,-3,8,-6,4,4,6,-1,8,-15,3,6,1,2,-1,-10,2,6,6,-4,1,-5,0,12,-4,10,-20,0,1,4,-2,-6,8,6,-34,10,-12,5,6,-8,-1,-1,7,3,5,-8,11,-5,-1,-7,-1,4,1,-3,4,0,4,-24,10,6,7,-5,-1,31,-40,-14,4,-5,8,8,-2,-2,-1,0,2,1,-18,2,1,-7,7,6,-10,-13,16,17,-27,-4,-2,12,7,-13,-2,-3,4,-1,5,-19,6,11,-17,4,6,-8,10,-12,3,-6,14,-4,-12,2,-5,11,8,-3,-6,-11,0,8,4,0,-6,2,-4,4,3,-4,-2,7,-2,-12,2,-17,1,26,-10,4,6,-7,6,5,-3,-5,5,-7,1,7,-7,7,3,-8,8,3,4,-13,-6,2,1,3,-5,-13,-1,5,-3,5,-2,-1,-2,0,-2,-10,6,5,-8,4,-5,-4,-2,3,5,-9,-4,1,3,-19,7,-4,8,2,-7,4,-2,2,-3,7,-13,2,2,-6,-12,10,7,-8,2,6,-17,6,-4,1,-2,-2,2,1,0,0,3,2,15,-43,3,0,-6,14,2,-12,13,-5,11,-14,-11,19,6,17,-22,2,-1,5,-4,10,-6,-2,0,-3,1,-12,-14,11,-8,2,4,-3,-11,2,8,0,5,3,-2,-10,2,1,-3,-4,-21,7,17,-18,8,-4,-3,-1,1,1,-3,4,-2,1,-2,4,10,-13,-6,2,2,-2,3,6,-1,-1,0,1,-5,-4,-15,27,-8,18,-7,-8,-1,-9,8,2,2,-8,3,-9,1,-3,3,-1,-2,-4,4,-8,0,2,-3,-3,-1,2,-1,0,-1,-2,0,0,-1,-1,0,-3,-2,-1,1,-4,0,-2,0,-1,-1,-1,1,0,-1,-2,-1,1,-2,-1,-1,-1,-2,-1,-1,-2,0,-1,-1,-1,-1,-2,1,1,-1,-1,-1,-3,-1,0,0,-1,-1,-2,1,0,1,-1,0,0,0,2,-1,-1,-1,-3,0,1,-2,-1,-1,0,-1,0,-1,-1,-1,0,0,-2,-1,-1,1,-1,-2,0,0,1,0,0,0,-1,-1,-1,-2,-1,0,-1,0,-2,-1,-1,0,0,-1,-1,-1,0,-1,0,-1,-1,-3,-1,0,-2,-1,-3,0,0,0,-1,0,-1,1,-1,0,0,0,-1,-1,-1,-1,0,0,0,-2,-2,-2,0,0,0,-2,-1,-2,0,0,0,-1,0,-1,-1,-1,-2,-2,0,-1,-1,1,0,1,0,0,0,-1,-1,-1,-1,0,-1,0,0,-1,0,0,-1,0,-1,1,-1,-1,-1,-2,0,0,-1,0,-2,-1,0,-1,-1,-1,0,-1,-1,-1,0,0,-1,-1,-1,-1,-2,-1,-1,-1,0,1,-1,-1,-2,-1,-1,0,0,1,-1,-1,1,-1,1,-1,-2,-2,0,0,0,-1,-2,1,-1,-1,-2,-1,-2,0,-1,0,1,-1,0,-2,0,-2,-1,0,-1,0,1,-1,-2,-1,-1,0,1,0,-1,0,-1,-1,1,-1,-1,-1,1,1,0,-2,0,-2,-2,0,-1,-1,-1,-2,0,0,0,-1,0,-1,0,-2,0,1,-2,-1,-2,0,-1,0,-3,1,-1,-1,-1,-1,-1,1,1,0,-1,-1,0,-2,-1,-2,-2,-3,-1,-1,1,0,-2,3
1,1,-4,0,-2,1,-1,-1,-2,1,-1,0,0,-1,-3,0,0,-1,-1,-1,0,-1,-3,0,-2,-2,1,-2,-1,-1,-2,2,-3,2,-2,2,-3,-2,-2,-3,0,0,-1,-1,1,1,-2,0,2,-2,-1,0,-1,0,-2,-2,-1,0,-1,-1,0,0,-1,0,1,0,-1,-1,-2,0,-1,-2,0,-3,3,-1,-2,-1,-5,0,0,-2,-1,-3,2,1,1,1,-3,-5,3,-4,2,0,-4,0,0,2,-15,12,-1,14,3,4,-70,17,-25,35,24,-24,22,-5,13,-13,-7,-14,21,-10,-73,-41,41,29,31,5,-35,3,-4,23,-84,4,-9,-14,51,-6,32,-3,-13,-11,35,10,-34,7,-12,-11,17,-7,4,10,3,9,9,-21,31,0,-10,-60,94,-21,-12,2,-43,30,9,5,-13,11,-4,10,9,-22,-10,13,-21,-12,26,23,-15,3,3,2,14,-23,19,29,-15,10,-23,-2,111,-68,-56,19,-22,39,46,-50,-8,24,-18,21,-18,-19,1,-4,36,-111,64,25,-4,127,-108,42,-21,31,38,-32,-26,-9,2,-33,-3,-1,-5,12,13,-39,-1,-14,59,31,37,-68,-33,-14,25,6,-70,10,14,28,-12,25,0,66,-58,46,21,-24,8,-15,-26,20,-7,-22,23,-54,39,-23,-7,27,21,38,-54,-5,21,42,31,-18,-12,-1,-11,4,3,-36,4,-14,-25,19,7,-48,89,-82,43,-47,22,-16,-7,29,-23,16,-32,2,13,34,-9,7,-58,-17,-31,11,-38,-52,41,36,17,-25,-18,37,31,-7,-31,11,-2,-20,18,-23,2,66,-91,-16,12,-7,27,10,16,37,-40,-43,66,8,-12,8,-57,13,29,-38,29,-23,-2,-4,-19,-21,13,12,26,-6,52,20,-3,17,-29,28,-45,37,-12,1,44,-39,-35,-15,14,27,-20,54,-73,31,-68,125,-37,-25,27,-66,38,0,-10,-9,16,-6,-27,-2,-43,-11,83,-45,-35,77,-25,31,-23,-30,46,-26,13,-17,14,-20,50,-73,-2,-81,48,13,62,30,-65,-12,18,10,1,6,-22,0,-5,9,10,-25,26,-14,-89,107,-29,21,70,-45,26,-95,-10,-1,16,12,-15,10,-26,42,-37,5,-82,-24,85,-41,10,-52,-20,0,-4,28,11,-11,13,12,0,-7,9,45,-53,-30,79,23,51,-35,36,-32,3,-1,-24,14,-32,14,-12,73,-93,23,-62,-37,74,34,-26,5,-18,-40,33,-26,0,32,-7,-10,-1,17,90,-113,92,17,-25,-25,0,10,10,-2,-63,38,-27,27,0,-2,-31,21,84,-108,14,9,35,-44,39,-15,0,-1,-32,32,-23,34,-26,15,-28,20,15,-65,-27,2,59,1,-21,-20,17,26,10,-4,-1,16,-28,19,-21,14,11,-61,43,11,61,-8,0,-33,-2,5,-43,30,-31,9,-6,16,-10,20,-8,64,-116,58,-14,-71,125,-15,-17,-31,-13,12,-6,8,-30,20,-21,-21,36,40,-52,-58,-11,41,17,23,-6,1,20,-7,9,-22,-17,35,4,-22,2,35,-72,33,-15,24,14,-24,-20,22,-37,-6,14,-1,2,-7,3,-5,34,-54,44,3,22,42,9,34,-85,21,-25,-5,14,1,-18,-13,28,-18,71,-60,-22,29,-72,62,93,3,-53,14,-20,-51,21,-5,5,11,-15,1,27,-76,19,-41,-33,57,104,-79,-30,-11,-11,25,-12,-1,22,-3,-3,52,-15,-76,-16,-25,-11,104,-37,38,-53,-31,28,-9,-12,25,12,-18,35,4,35,-84,24,-49,70,55,-101,10,-1,-33,19,9,-48,19,-4,17,-8,-2,31,-4,-38,2,-30,76,6,-9,26,-34,57,-16,1,-18,2,-7,-9,-4,-59,66,7,-19,-16,-66,78,-9,17,4,-46,15,7,-7,7,58,-3,-84,82,-92,-28,78,-34,15,-26,-18,-11,-2,-5,26,-9,-15,53,-5,-46,-40,-80,34,-42,77,-5,5,-25,6,25,7,21,-9,-15,28,-4,-10,98,-52,-70,-53,94,20,17,-38,-55,2,0,18,12,-11,1,51,-51,-11,-6,-66,0,18,36,3,-26,24,17,-4,6,7,-6,15,21,-31,-21,-20,-37,-86,84,74,-8,-43,7,-10,0,34,-10,3,-12,17,6,14,8,-11,8,-16,-29,96,-40,9,-33,4,5,-4,12,-17,4,-24,28,38,23,-41,24,-41,59,26,90,-78,-15,-28,-30,41,-39,4,-10,-3,-47,53,31,-78,63,-3,86,-1,-90,17,-23,33,7,2,-56,15,-11,-1,-28,15,-58,72,-18,33,-34,-65,-31,12,19,-16,-12,-16,37,3,-32,15,4,55,-71,42,0,34,-26,29,-71,-11,9,-39,65,-28,-12,1,60,-122,127,-55,-99,56,85,-23,28,-19,-20,5,20,-17,6,-13,-18,39,20,16,-13,52,-69,55,-54,79,1,5,13,-58,5,-19,13,26,-42,74,-76,8,-25,-47,105,-23,6,-28,30,0,25,-5,0,15,-40,-3,15,1,-44,9,89,-37,0,8,-10,-50,29,-8,-15,10,0,1,-75,86,-81,51,27,-73,48,59,-57,0,72,-32,-48,2,-16,16,-41,32,-8,-28,62,-54,60,-103,66,-1,9,-30,4,-3,-9,-3,44,-13,2,64,-93,-62,56,-24,89,-37,-13,32,-23,-11,-5,21,-14,62,-38,26,21,25,3,-83,90,-59,64,-20,-47,-17,-6,15,-27,17,60,-45,11,-47,-22,1,5,60,-41,23,-26,31,-30,25,-44,23,28,6,-32,8,-76,0,24,45,-12,-69,10,6,7,11,2,-2,-13,39,-12,-14,11,21,-4,-26,3,7,-1,2,-1,-3,2,-10,-4,-6,-6,15,38,-48,-6,-5,-11,37,2,-11,-7,-4,-4,16,1,-13,-6,17,-5,0,6,-14,-14,15,0,-12,-14,4,13,6,-15,-9,31,-5,3,-6,-12,-3,4,2,-2,-3,-7,6,-1,-3,2,6,-6,-4,2,-1,-3,-2,0,0,-6,3,-3,2,1,-1,-1,1,-3,-2,1,-1,-1,-3,0,-1,-1,-3,-1,4,-3,4,-7,-2,0,6,-3,3,-2,-4,3,-5,3,-1,4,-2,-3,-3,3,-2,-1,-2,0,-2,-2,-3,2,-2,-1,1,-3,-2,0,3,-5,-3,-1,-2,1,2,-2,0,-2,-1,0,-1,-1,-1,0,-1,0,-2,2,-1,-1,-1,-1,0,0,-1,-1,0,-2,-1,1,-2,0,0,-2,0,0,-1,0,-1,-1,-3,-1,2,1,-3,-1,-2,1,-1,-1,-1,-2,-1,1,0,0,-2,1,0,-1,0,-3,-1,0,0,-3,1,0,-2,-2,0,-2,-1,0,-1,0,-3,-1,0,-1,0,1,-2,0,-3,-1,1,-1,-2,-2,-1,0,0,-3,0,0,-3,1,0,-2,0,0,0,-2,0,-1,-2,0,-2,1,0,-1,1,1,0,-1,0,-1,-1,1,-3,1,-1,-1,-2,-1,-1,3,-1,0,1,-1,-1,-2,-1,-1,-1,0,0,0,-1,0,1,-1,1,-2,0,0,-1,-1,-1,-2,0,0,-1,1,-2,-2,0,0,-1,1,0,0,-1,-1,-1,-2,-1,-3,1,0,-1,-1,-2,1,-3,1,1,0,-1,-1,-1,-3,-2,0,1,-1,0,-1,-2,1,-1,-1,-1,-1,-1,1,0,0,-1,-1,0,-1,-1,-2,-1,1,-2,-1,-2,-3,-1,1,0,-1,0,1,0,2,-2,-3,-1,-1,0,-2,0,0,-1,-2,-1,0,0,-2,0,1,-1,0,0,-1,-3,-1,0,1,0,0,0,-3,-2,0,-2,-1,-1,-1,0,-2,-2,-2,-2,0,0,0,-1,-1,-1,-2,1,-2,0,0,-1,-2,-1,-1,0,0,0,0,-1,-1,-1,-1,-1,-2,0,-4,2,-3,-1,-3,2,1,-1,-1,-4,-1,-2,1,0,0,-2,0,-3,0,-2,0,-1,-3,0,0,0,-1,-1,0,-3,-6,2,1,1,-1,-4,-1,-1,-3,0,0,-2,0,-1,1,-2,0,0,1,-1,1,-1,0,-2,-3,1,-2,1,-2,0,-1,0,-3,-1,-1,-2,-2,4,-2,0,-1,-3,1,-1,-2,0,0,-2,-1,-2,-2,-2,2,-1,0,-4,0,-1,-2,2,4,-1,2,-1,-5,-1,-3,0,-1,-2,1,-1,-4,-1,0,1,-3,0,1
1,-3,-1,-1,0,0,0,-1,-1,2,-1,-1,-1,0,0,-2,0,0,0,-1,-1,0,-1,-1,-2,1,0,-2,-1,0,0,-2,-3,-1,0,-1,-1,1,-1,-1,-1,0,0,-2,1,-1,0,-2,-1,-1,1,-1,-1,1,1,-1,-1,-1,-2,-2,-2,0,0,-1,1,-2,1,1,0,-1,0,-3,-1,1,-1,-1,0,0,-1,-3,0,0,-1,-1,0,-1,0,-2,-1,1,-1,-1,-2,-3,0,0,-1,0,0,-2,-2,0,0,0,-1,1,0,-3,0,1,1,-3,0,-1,1,0,1,-1,-3,0,-1,1,-1,-2,0,0,-1,0,-1,-1,-2,-1,-1,-2,0,-2,1,0,-3,0,-2,-2,0,-1,-1,-1,-1,-2,-1,-1,-1,-3,0,-1,0,0,-1,-1,-1,0,-1,-1,-1,-1,-1,-1,-1,-2,0,-1,-1,0,-2,0,-1,-2,0,0,-2,1,-1,-1,0,0,0,-1,-2,-1,0,0,-3,-1,-2,-1,-2,-2,0,0,-1,1,0,0,0,-1,-1,-2,-2,-2,1,0,-2,-1,0,0,-2,-2,-1,-1,-2,0,-4,-1,-2,0,0,1,-2,-1,-1,-2,-2,0,2,0,-1,1,1,-2,-1,-1,1,-2,-3,-1,-1,0,0,0,0,-1,-1,-2,0,0,-1,-1,1,1,-1,1,-3,-1,-1,1,2,0,-3,-2,0,-2,-4,-1,1,0,-1,-1,-1,0,-1,0,0,0,0,0,0,0,-3,0,-1,-2,-1,0,-1,-1,-3,-1,1,0,0,0,0,0,0,0,0,0,-2,-1,1,0,0,0,-1,1,-1,1,-3,-1,-1,-1,0,0,-3,0,0,0,-1,0,0,-1,-2,-3,1,-1,1,-1,-1,0,0,-2,1,0,-4,0,-1,0,-1,0,-1,0,0,1,0,-1,-1,1,0,-1,-2,-2,-1,-1,0,0,1,-2,-1,0,-1,-1,-2,-1,1,0,-1,-1,0,0,-1,-3,0,1,-1,-1,0,0,-2,1,0,2,-3,-1,0,0,-2,0,0,0,0,-1,0,0,-1,-2,0,0,-1,-2,0,1,0,-2,-2,1,-2,0,-2,0,-2,-1,-2,0,-2,-1,1,0,-1,-2,0,-1,-2,1,1,0,0,-1,-1,-1,-1,-2,1,-1,-1,-2,-1,-1,-1,1,-2,0,-2,-1,0,-1,-1,-1,-1,0,-2,0,0,-1,-1,-1,-1,0,0,-2,-1,0,-3,0,0,0,-1,0,0,-1,-3,0,-1,1,-2,-1,-3,-1,0,-1,1,-3,-1,0,0,-2,-1,-1,-2,-1,0,-1,0,-1,-2,-1,0,-2,-1,-1,-1,-2,0,0,-2,-1,-1,0,0,-1,-2,0,0,-3,-2,-1,-2,-1,0,-2,1,-1,0,1,-1,-2,-2,-1,-2,-2,-2,1,0,0,-1,-1,-2,-3,1,2,0,-1,-2,0,0,0,-1,-1,-2,-3,-1,0,0,-1,0,-2,0,0,-1,1,-1,-3,0,-1,-1,0,-2,0,-1,-1,0,0,0,-2,0,0,2,-4,-2,0,-1,-3,-1,0,-1,-2,0,-1,1,0,-2,-1,0,-2,1,0,-1,-3,1,-1,-1,-2,-2,0,-1,2,0,0,0,-1,-1,2,-2,-2,1,0,0,-3,-1,-1,0,-2,0,1,-1,0,0,-1,0,-1,1,-2,-1,-1,0,1,-2,-2,-2,-1,0,-2,-2,-1,0,-3,1,1,1,-1,0,-1,0,-2,-1,-2,-1,-2,-1,0,0,-1,0,2,-1,0,0,1,-1,-1,-1,1,1,-1,-1,0,-1,0,-1,-2,-1,-1,-1,1,-1,-2,1,-2,0,-2,0,0,-1,-3,0,0,-1,-2,-1,1,1,-2,0,1,-1,-2,1,-1,0,0,-2,0,-2,-1,-2,1,0,-3,0,-1,1,-1,-1,0,-1,-1,-2,0,1,-1,-1,-1,0,0,0,0,0,-3,-1,1,0,-1,-1,0,2,-2,-2,-2,1,-3,1,0,-1,0,-1,-1,-1,0,-1,0,-2,-2,-1,0,-1,-1,-1,-1,0,-1,-1,-1,0,-2,-1,-1,0,-1,-3,0,0,-2,1,1,0,-1,-1,0,-1,-2,-1,0,1,-2,0,-3,0,-1,0,-1,-2,-1,-2,0,-2,-1,1,0,-1,-1,-2,-1,1,-1,-2,0,-1,-1,-1,-2,0,-3,0,-1,0,-1,-1,-1,0,-1,-1,1,-1,-2,0,-1,1,-2,-2,-1,0,-1,0,-2,-1,0,-3,0,-3,0,2,0,-2,-1,0,-1,-1,0,-2,1,-2,-1,0,-2,-2,0,0,-1,-1,-1,-1,-1,-1,1,-1,0,-3,0,-1,-2,-1,-1,-1,-2,-2,-2,1,-1,-2,-1,0,0,-3,0,-1,0,-2,-2,1,-1,0,-1,0,0,0,-1,1,0,-2,-1,-2,0,0,0,-2,-1,-2,-2,0,0,-1,-1,1,-2,-2,-1,1,-1,-1,-2,-2,0,-2,-1,1,0,-1,1,-1,-1,-1,0,0,-1,-1,0,-1,-2,-1,0,1,1,0,0,-1,0,-3,0,-1,-1,-3,0,0,-1,-1,0,1,-3,-1,0,-2,0,-2,0,0,-1,-3,-1,-1,-1,-1,1,0,0,-2,-1,0,-1,-3,-2,0,0,-3,-3,0,-1,-2,0,-1,0,-1,0,1,1,-2,1,-2,-2,-2,-1,0,-1,-1,0,0,1,-1,-1,0,0,-3,0,0,0,-2,-1,-1,0,-1,-1,0,-1,-2,0,-2,-1,-1,-2,1,0,-1,-1,-1,-1,-1,-1,-1,-2,-1,0,-1,0,0,-1,0,0,-3,0,-1,0,-1,-1,0,-2,-2,0,0,-1,-2,-2,0,-1,-2,1,1,-3,0,-1,1,1,-2,0,0,-1,-2,0,2,0,-1,-2,0,0,-2,0,-2,1,-3,-1,-2,1,-1,-2,0,-1,-2,-1,0,1,-3,-1,0,-1,-1,-3,1,0,-3,-1,-1,0,-1,-1,-1,1,-1,0,0,0,-1,-2,-2,1,-2,-1,-2,-2,-1,-1,0,0,-2,-2,0,-1,1,-1,0,0,-3,1,-1,0,-1,0,0,0,-1,-1,-1,0,-2,-1,-3,0,-2,0,-1,-1,0,0,-1,-1,-2,-1,0,0,-2,-2,-1,-1,-2,-1,-2,-1,-1,-2,2,-1,2,-2,-1,0,-1,1,0,-1,0,-1,-1,0,-2,0,0,-1,-2,-1,-2,-3,1,0,-1,0,-1,-1,0,-1,-3,0,1,0,-1,-3,0,-2,0,0,-2,-1,-1,0,-1,-3,-2,-1,-1,-2,-1,1,-1,-1,-1,-2,0,-1,1,0,-3,-1,-1,1,-1,-3,-1,1,1,-2,-1,-1,0,-1,-1,0,-2,-1,-1,0,-1,-1,-2,-1,-2,-3,1,1,1,-2,0,-1,-2,-2,-1,-2,-1,0,-2,1,-2,-2,0,0,0,-2,0,1,-2,-1,-3,-1,-1,-2,0,1,0,-1,0,0,0,-1,0,-1,-2,-2,-3,-1,-1,-1,0,1,-1,-1,0,-1,1,0,-1,2,1,-2,0,0,-1,-1,-1,-1,0,-1,-1,-1,0,-2,1,-1,-2,-3,-1,1,-1,0,0,-1,-2,-1,-1,0,1,-2,1,-1,-2,-2,-1,0,-1,0,0,0,0,-2,-1,0,0,-2,-1,-1,0,-2,0,0,-1,-3,0,0,1,-1,0,-1,1,-2,3,1,-2,-1,-1,-2,2,0,-1,1,-1,0,0,0,-3,-1,-2,0,0,-2,-2,-1,-1,-3,0,1,0,-2,-1,0,-2,0,-1,-1,-1,-1,-1,1,0,-2,-1,0,-1,0,-1,1,-2,-3,0,-1,-1,-1,-1,0,1,-2,0,-1,-1,-2,0,0,-2,-1,1,-2,0,-2,-1,1,1,-2,-1,0,-2,-2,1,0,0,-1,-2,-1,3,-3,-2,0,0,-1,-2,-2,0,-1,-1,-1,1,-2,-1,0,0,-1,-1,0,0,-3,0,0,-1,-2,-2,0,0,-1,-1,-1,-1,-2,0,-1,0,1,-2,-1,-1,-2,-2,0,-1,0,0,-1,0,0,-1,-1,1,0,-1,1,0,-2,1,0,-1,-2,-1,-1,1,-1,-3,-1,1,-3,-1,-1,0,0,0,0,0,-1,-1,0,0,-1,1,0,-1,-2,-2,1,0,-1,-1,0,0,-1,-1,0,-1,-1,-1,-2,0,-2,1,0,0,0,0,-1,-1,1,-1,-1,-2,-1,1,-1,-1,0,0,0,-2,-3,4
0,-1,-2,-1,0,0,-2,-2,-2,-1,0,0,-1,-1,-1,0,0,-2,-2,-2,-1,-1,0,0,-1,0,-1,1,0,0,-2,-1,1,-1,-1,-1,-1,0,-2,0,-1,-1,-1,-1,0,1,0,-1,-1,0,-1,1,-1,-2,-2,-3,-1,0,-1,1,0,0,-2,-1,0,-1,-1,0,-2,-2,-1,-2,-1,0,0,1,-1,-1,0,-1,0,-2,0,0,-2,-2,1,1,-1,1,-1,-2,-2,-3,-1,0,-2,-3,0,0,0,-1,-2,0,0,-2,0,1,-1,-1,0,-1,-1,-2,0,1,-2,0,-2,18,-37,-1,-1,-1,11,-3,-1,-2,5,-5,3,-4,2,0,-2,-4,4,-1,-2,-4,5,-2,-3,0,2,-2,-1,-1,-1,-2,0,-3,0,-1,-2,-1,0,0,0,0,0,-2,1,0,0,-1,0,0,-1,-4,1,-1,-1,-3,0,-1,0,-2,-1,0,-1,-1,0,0,-1,-2,0,1,-1,0,0,0,-2,-2,0,-2,0,-3,1,1,-1,-4,-1,-1,0,0,1,-3,-2,0,1,0,1,-2,0,2,-1,-1,-2,2,0,-2,0,-1,1,-1,0,-1,0,-2,-3,0,0,-2,-1,-2,0,0,-1,0,0,-1,-1,-1,-1,-1,0,-1,0,-2,0,1,0,-1,0,1,0,-1,0,0,-2,0,-2,-1,-1,-1,1,-2,-2,0,-2,-1,0,-3,-1,1,-1,-1,-2,0,1,-1,-1,0,0,-1,-1,-2,0,-2,0,0,2,-2,-1,-1,2,0,-3,1,1,-3,-1,-1,-1,-1,-1,-1,-2,-1,0,0,0,-2,-1,-2,-1,-2,-1,-2,2,-1,-1,2,-2,0,0,-1,0,-1,-1,-1,1,-3,-1,-1,-1,0,-1,-1,1,-3,-1,-2,-2,-2,0,0,-1,-2,-1,-1,0,-1,0,0,0,-1,-2,0,-3,-2,-2,0,-1,-2,1,-1,-1,0,-2,0,-2,-1,0,-2,-3,0,0,-1,-1,-1,-2,-1,0,-2,-1,-1,-1,0,0,-1,-1,-1,-1,1,-1,-2,2,-1,-1,0,0,-1,-2,-1,1,-2,-1,-1,-1,-1,-3,-1,-1,1,-3,-2,-2,-1,0,-1,1,-3,-1,-2,0,-2,-2,0,-1,-2,-2,-1,0,0,-3,-2,0,-1,-2,0,-1,-1,-1,-1,0,0,-3,-1,1,-1,-1,-1,1,0,-2,0,-1,0,-2,1,2,0,-3,1,-2,0,-2,0,1,0,-2,-2,1,-2,-2,-1,0,-1,-3,-1,0,0,-2,0,-1,2,-3,-1,-1,-2,-1,0,0,-2,-1,1,-1,-2,-2,0,0,-1,-1,0,-1,-1,-2,-1,0,-2,-2,0,0,0,-1,-1,-1,-1,-1,0,2,-1,-2,1,-1,0,-1,-1,-1,0,-3,-1,0,-1,-1,0,-1,-1,-4,-1,0,-1,-2,-1,0,1,-2,0,1,-2,0,-2,-1,0,-2,0,-1,0,0,1,1,-1,-1,-1,0,0,-2,0,1,-2,-2,-2,0,1,0,0,0,0,-1,0,-1,-2,-2,-1,0,0,-2,-1,-1,1,-2,-1,0,0,-1,-1,-1,0,-1,-1,-2,1,-1,-2,-1,-1,-1,-1,1,-1,-1,0,0,0,-3,0,0,0,-1,-1,0,-3,1,0,0,1,-1,-2,-2,0,-2,0,-1,-1,-2,0,-1,0,-1,1,0,0,-3,-1,0,-1,-1,-1,0,-1,-2,-1,-2,-1,0,0,0,0,0,-1,0,-1,0,0,0,-1,-2,-1,-1,1,-1,-2,-2,-2,-1,0,0,0,-2,-1,-2,0,-2,-1,-1,-3,-1,-1,-1,-2,0,0,-1,0,-3,-2,0,-2,0,0,0,-2,0,0,-1,-1,-2,-1,0,-2,-1,2,0,-3,1,0,-2,-3,0,1,0,-2,1,1,0,0,0,-1,-1,-3,-2,-2,0,-2,0,-1,-1,-1,-1,1,-1,-1,-1,0,-2,-2,0,0,-2,-1,-1,-1,0,-2,0,0,-1,-3,1,0,-1,-2,-1,0,-1,-1,-1,2,0,-1,-1,0,-1,-1,-2,0,0,-2,0,0,-2,-3,-1,0,-1,-3,-2,-1,0,-2,-1,0,-2,-3,0,1,-1,-2,-1,1,0,-1,1,0,0,-2,0,0,-1,-1,1,-1,-1,-2,0,0,0,-1,0,0,-2,-3,0,0,-2,-2,-1,0,0,-2,0,-1,-1,-1,0,-1,-1,-2,-1,0,1,-1,0,0,0,-1,-2,0,-1,-2,-3,0,1,0,0,-1,0,-2,-1,0,0,-2,0,0,-2,-1,1,-1,1,-4,-1,0,1,-2,0,0,1,-1,0,0,-1,-2,0,1,-2,-2,0,0,1,-1,0,-1,0,0,0,0,-1,0,0,1,-1,-2,-1,0,1,0,-1,-1,2,-1,-2,1,1,-2,-1,-1,0,-1,-2,-2,1,0,-1,-1,-2,-1,1,1,-2,-3,0,0,0,-2,-2,1,-1,-2,-2,-1,0,-2,-1,-1,-1,-2,0,0,0,-3,-1,-1,-1,-1,-3,-1,0,0,-1,0,-1,-1,-1,0,0,-1,1,0,0,0,-2,-1,1,-2,1,-2,-1,-1,-3,-2,-1,-2,0,0,-1,0,0,-2,-2,-1,-1,1,-1,-2,-1,-2,-1,0,-1,-1,-2,0,0,-1,-2,-2,-1,-3,-2,-2,-1,0,-2,-1,1,0,-3,-1,-1,-1,-1,-1,1,-1,-1,0,1,0,-1,-1,-1,-3,-2,0,0,0,-2,-1,0,0,-1,0,1,-1,-2,1,-1,-1,-2,-1,2,-2,-3,-1,0,0,1,0,-1,2,-2,-1,0,-2,-3,-1,0,0,0,0,1,-1,-4,2,1,-3,0,-1,0,-2,-3,-1,-1,0,-2,0,-1,-1,-2,0,0,-2,-1,0,-1,2,-2,-2,0,-1,-2,1,-1,0,-3,-1,0,0,-3,1,1,-1,-2,-1,-1,-1,-1,1,0,-1,-1,-1,1,-1,-2,1,-1,-1,1,-1,1,-1,-2,1,0,-1,-1,-1,-2,-1,-2,0,0,0,-2,0,3,0,-2,-1,-1,-1,-2,-1,0,0,-2,-1,-2,-1,-2,-1,0,1,-1,-2,1,-1,-2,1,-2,1,-1,-1,-1,1,0,-1,0,-2,-1,-2,-1,-2,-1,0,0,-1,-1,-1,-1,0,-1,-1,2,-1,-2,0,0,-1,-1,-1,-1,1,-2,0,0,-1,-1,-1,-2,2,-2,-3,0,1,-1,0,0,0,-1,-1,0,0,0,-2,-1,1,-2,-3,-1,1,-2,0,0,-2,-1,-1,0,0,-2,0,-1,-1,-1,-1,-1,-1,-2,0,1,-1,-1,0,0,0,-3,1,-1,-1,-1,-2,-1,0,-2,0,-1,-2,0,0,-2,0,-2,0,-1,1,-2,-1,-1,-1,1,0,-1,0,-1,-1,-1,1,0,-1,-1,-2,-2,-1,-1,-1,-1,1,0,-2,1,-2,0,-1,-1,-1,0,-2,0,0,-1,-2,-1,-1,-2,0,-1,0,-1,-2,0,-1,-1,-3,0,0,-1,-2,-2,0,-1,0,0,-2,0,-1,-1,-1,-2,-1,-2,0,-1,-2,0,1,-1,-2,0,0,-1,-2,-2,0,-1,-1,0,0,-2,-2,0,1,0,-3,-1,1,-1,-1,1,0,0,-1,-2,1,-1,-3,-1,0,1,-1,-1,-2,0,-2,0,1,-2,-1,1,1,-2,-1,0,0,-1,-1,1,1,-1,-1,0,-1,-1,-2,0,0,-1,-1,0,1,-1,-2,-1,0,-1,-3,0,1,0,-2,0,-2,-1,-1,0,-1,0,-3,-1,2,-1,-1,0,-1,0,-1,-1,0,0,-1,-1,1,0,-3,0,0,0,-2,-1,1,-2,-1,0,0,-1,0,0,-1,0,-1,1,0,1,-1,-1,-2,1,-1,0,-1,-1,-2,-1,1,0,-2,-2,0,1,0,0,2,0,-1,-1,-2,-1,-1,0,0,-1,-2,-1,0,-2,-2,0,-1,-1,-2,1,-2,-1,-2,1,1,0,-2,-3,1,1,-1,1,-2,1,0,-1,2,-1,-2,-1,1,1,-3,-2,0,0,0,-2,-1,1,-2,-1,-1,0,-1,-2,-2,-1,0,-2,1,1,0,0,-1,-1,-2,-1,0,-1,-2,0,1,1,-2,-2,-3,-1,-2,1,0,-2,0,0,-2,1,-1,0,0,-2,-2,-1,-1,0,-2,-3,0,-1,-2,1,-4,-1,-1,-1,0,1,0,-1,0,-1,0,-2,-1,1,0,-1,0,4
0,-1,-1,-1,-2,0,0,-2,-2,-1,-1,2,-2,1,1,-1,-1,0,-1,1,-2,-1,-1,1,-1,-1,-2,-1,-2,-1,-1,0,-1,0,2,-1,-2,1,0,-1,-1,-1,-1,2,-3,0,0,0,-2,-2,-1,0,-2,-2,2,-1,0,0,0,-2,-2,1,-1,1,-4,-2,2,0,-3,-1,1,0,-1,-2,-1,1,0,-1,0,-1,-1,0,-2,0,-2,-2,0,0,-2,-1,0,0,-1,-1,-1,0,-1,-1,-1,1,-1,-1,0,0,-2,-1,0,0,0,-1,0,0,-2,1,-1,-1,-1,-2,0,-2,0,-2,-1,-1,-1,-1,0,-1,-2,-1,-2,-1,-2,-1,0,1,-2,-1,-1,1,-2,0,0,-2,-2,0,0,-1,-2,-1,-1,1,-1,0,0,1,-3,-1,0,-1,1,4,11,-4,-48,-15,14,-2,25,0,-18,-4,30,-12,12,-25,-10,18,1,-15,-1,1,-14,18,7,-5,-18,14,32,-20,-4,-9,-16,14,-30,71,-55,29,-17,-8,-11,-9,2,-2,21,-20,15,-9,-7,9,7,-16,4,2,24,-66,22,-22,-14,38,0,98,-61,1,-7,-30,46,-18,-3,4,-1,-11,13,-30,7,-4,8,-22,-13,9,16,-1,32,35,-68,41,-32,11,2,-21,10,-13,23,-27,23,-1,-13,18,-15,-26,-29,10,6,5,-13,28,-47,-2,21,-38,19,-19,13,12,40,-13,22,-40,4,-38,-4,51,-28,36,30,-35,6,6,-18,30,41,-29,-55,16,5,-29,60,37,-16,-4,-1,-5,-1,47,-47,-35,-6,4,21,-21,-7,61,-62,-4,1,-5,20,22,-32,23,-12,24,33,-41,-1,-5,14,-13,20,-31,39,22,-23,-17,-29,10,-9,-9,-4,-17,57,6,-3,-19,9,-10,-5,-19,-8,20,-12,3,-4,-9,48,-53,24,-29,-23,71,-36,11,-24,4,-3,12,-11,-2,15,0,-27,3,22,4,-63,32,-37,5,6,-14,-1,-33,68,-17,31,-27,12,-8,-22,15,23,22,-10,-4,3,-30,18,15,24,-3,2,15,-7,-42,19,-5,-43,43,51,15,-93,-5,40,-39,46,-12,-11,11,6,-7,-11,-2,8,24,-38,-14,4,27,-3,26,-56,-34,-13,3,26,-2,12,11,11,-10,-12,40,-7,-10,-9,-9,24,81,-106,-18,44,-3,29,-30,-2,-13,22,-5,5,-34,36,11,-31,-19,31,9,2,-22,2,-21,-14,-11,6,16,26,5,9,-8,-6,-1,-9,-17,-18,28,3,40,37,-15,-65,56,-54,28,4,-15,17,-15,5,-14,-4,-11,-3,-18,7,-2,4,64,-73,-34,5,8,6,-5,-14,-2,38,-5,6,10,-47,-16,15,-22,5,33,-4,4,-9,30,-20,8,13,-3,4,4,-2,-9,20,-54,5,-9,-4,22,-15,6,-33,2,-42,-18,33,-21,5,-1,-8,2,33,-7,13,-14,7,-5,-24,12,-11,72,-25,-5,4,-58,66,-61,46,-17,-4,-5,0,-5,11,14,-6,13,-2,3,-3,29,-19,-26,3,39,49,-1,11,-31,-34,21,11,-61,3,-4,21,18,-22,-25,-6,-9,53,-57,-1,14,-11,5,23,10,4,16,-38,22,-40,-12,4,10,-23,29,-32,18,-23,-42,-1,-32,17,45,18,-31,11,6,3,3,-12,-2,10,-32,22,-35,55,-63,15,18,6,3,-12,46,-32,46,-23,-6,0,-5,2,14,-6,4,-9,40,-100,8,32,-34,25,6,-6,-20,24,10,-5,41,-62,-11,70,-57,-7,14,-19,37,32,-9,-12,6,-1,-6,2,6,-26,8,6,-51,10,73,15,-1,-70,-16,34,34,-12,-32,2,14,14,-5,-19,-13,22,2,-15,12,6,44,-70,27,7,6,26,-32,17,-30,-12,-14,18,-7,-2,3,23,-32,39,-105,82,-19,37,19,-46,46,-24,-13,-13,18,-23,25,-7,0,-24,10,24,-37,36,29,31,-3,-35,36,-20,19,-38,25,-14,27,-5,-31,-37,-19,6,33,-4,25,-11,3,-4,-9,43,-52,-28,-26,27,-27,-46,62,-26,-16,-1,2,48,7,-10,-13,7,1,28,-18,-15,-9,55,11,-104,68,32,-40,25,-88,72,-43,70,-76,-9,-19,-3,32,-30,41,-13,5,-13,101,-25,-51,-8,4,48,92,-82,17,-5,-5,47,-33,-56,-31,7,21,79,-18,-28,-5,20,19,-9,-25,-5,18,-1,2,-40,-34,42,16,-2,12,-10,-49,21,3,12,21,-36,11,17,-19,-25,41,-20,-35,-70,35,-46,39,10,60,-57,-22,-14,-9,32,9,7,-13,26,39,-28,21,35,-8,40,16,27,-105,63,-18,-30,27,-25,-16,10,-36,19,-20,-14,7,-11,39,-20,83,-20,-119,62,8,40,-45,-48,-6,-8,18,59,-78,-36,23,0,-11,29,29,-43,-4,-32,51,12,-1,-7,-3,-11,-23,-4,-22,8,70,51,-96,-14,-2,29,-16,-23,31,-9,10,23,-42,-8,-18,5,-1,45,5,-10,49,-22,18,-65,-45,40,63,18,-41,1,-18,15,27,-25,22,-1,29,-26,9,23,-17,-41,-31,-4,22,-42,13,-9,17,10,1,8,-2,50,-28,0,-29,60,1,-24,-14,-53,-6,47,-18,13,12,-17,23,-5,8,5,32,5,-37,3,-3,-67,6,7,2,-26,-19,-11,16,12,-3,-10,23,-41,16,17,0,-56,43,-38,-8,25,-4,14,-10,19,-31,5,67,14,-47,-15,-13,25,17,-18,4,44,-36,-10,-12,3,29,3,-9,-20,26,57,-26,12,52,-26,-100,49,-67,32,16,-22,30,7,-14,1,24,-36,7,15,-6,-60,103,-30,6,40,-54,-12,-60,1,18,18,0,7,-4,-12,2,33,7,-81,35,-97,38,8,20,22,-19,29,0,-38,-29,20,4,19,-6,-3,6,52,-20,-26,-33,64,-11,-55,51,-16,23,-7,2,7,-5,25,-11,-11,-9,69,-56,29,-35,-16,27,-5,18,-31,22,-19,14,-20,12,-4,-2,-19,24,-19,-3,-15,31,-17,-87,36,-50,38,-14,7,28,-6,28,-8,-14,-20,13,-9,17,-5,-64,54,-24,-5,40,77,-92,24,-7,-6,32,-6,14,-15,-36,-5,89,-45,37,-46,35,10,-36,40,53,-24,-25,-8,-29,-5,15,-5,-32,89,-80,24,14,-14,62,-49,-15,-22,37,-15,6,-29,-1,33,-23,5,93,-90,14,-69,45,75,-36,12,-72,40,-30,31,-8,-23,16,8,-15,-4,42,-34,-31,4,3,-9,22,4,-16,13,7,11,-13,3,-13,-3,0,-11,-5,8,16,1,-5,1,-9,-5,-2,-8,5,3,3,3,-13,2,0,4,-1,0,1,1,0,-7,-1,-2,-1,-2,4,-6,-1,1,1,2,0,-2,0,0,-3,-2,-1,0,0,-1,-2,1,-2,0,1,-3,-3,-4,1,-1,0,-1,-1,0,-1,-1,-1,-3,-3,0,0,0,-2,-1,0,0,-1,-2,0,-1,-3,-1,0,-1,-3,1,1,0,-2,0,-2,0,-1,-1,0,-2,-1,-1,-1,-1,1,-2,0,0,-1,-2,1,0,-5,0,0,-2,-3,-1,0,1,-1,0,1,-1,0,-1,-2,1,-2,1,-1,-1,-3,1,0,0,-2,-1,0,-1,-1,-2,1,-1,-2,-2,0,0,-1,0,0,1,-4,0,-1,0,-2,0,-2,-1,-3,0,-1,1,0,-1,1,-1,-1,-1,0,-2,-1,0,0,1,-4,0,-1,-1,0,-2,0,-1,-3,-1,0,-1,-2,-2,0,0,-4,1,-1,-1,0,-1,1,0,-1,-2,0,0,-2,1,1,-2,-1,1,1,0,-2,-2,0,-1,-2,1,0,-1,-3,1,0,-3,0,-2,0,1,-2,-1,1,2,-1,0,0,1,-1,-2,-1,-1,-1,-2,0,-1,-2,0,0,1,-2,-3,1,1,1,-2,-1,0,-1,-2,1,0,-2,-1,-1,0,-2,0,-1,0,-3,1,0,-2,-1,-2,0,0,0,1,-1,0,-1,0,-1,-2,-2,-2,0,1,-2,0,-1,0,-1,1,-1,-1,-1,-1,0,-1,-2,-1,-1,0,-2,0,0,-1,-2,-1,1,-2,0,-2,0,2,-1,0,0,-1,-1,-1,-1,-2,-1,-1,0,-2,-2,0,-1,-1,0,2,-2,-3,0,0,0,-1,-2,1,-2,-2,-1,-1,0,0,0,1
1,2,-1,-2,0,0,-1,1,0,0,-4,0,1,1,-1,-2,-1,-2,-1,-1,-3,-1,0,1,0,-1,0,0,0,-1,0,-1,-2,-2,-1,-1,-2,0,-1,1,0,1,-1,0,0,0,-2,0,-1,-2,-1,-2,-1,-2,-1,0,-1,0,0,-2,-1,-2,-1,-2,0,-1,-1,0,-3,-1,0,0,-1,-2,0,0,-1,0,0,-1,-2,-1,-2,0,1,0,0,0,0,-4,-2,-1,0,0,-2,0,-1,-1,-1,0,0,0,0,0,1,-1,1,1,-1,0,-1,0,-1,-3,-2,0,0,-4,0,-2,-1,0,1,-1,-1,-2,0,0,0,-1,-1,1,0,-2,-1,0,0,0,0,0,-2,0,-3,0,-1,-2,0,-1,-1,0,2,-1,-2,-2,-1,0,0,-2,-3,0,0,-1,-2,-1,0,-1,-1,1,-1,0,0,-1,0,-2,0,-1,-2,-3,2,0,-1,0,0,0,0,-1,-2,-2,0,-1,-2,-1,-1,-1,-1,0,-1,-1,0,1,-1,-2,0,0,0,-3,-1,0,-1,-1,0,0,1,-3,-1,-2,-1,-1,-1,-1,0,-2,1,0,0,-1,-1,0,-3,-1,0,-1,-1,-1,-2,1,-2,-2,-1,-2,1,-1,-1,1,0,-2,0,0,1,-2,0,-1,-1,-2,-1,1,-1,-1,-1,1,-1,-1,-1,-2,-1,-1,-1,-1,-1,-2,-1,-1,1,0,-1,-1,-1,-2,0,1,0,-4,0,1,-1,0,1,-3,1,-2,0,-1,1,-3,0,-1,0,0,2,0,-1,0,-2,1,1,-1,-2,1,-1,2,-2,0,0,-2,-1,-1,0,-2,-2,0,1,-2,-2,0,-2,-2,-2,0,0,-1,1,-2,-1,-2,-1,0,2,-2,-2,0,0,0,-1,-1,1,-5,0,0,-2,1,-2,-2,-1,-3,-1,4,-2,0,2,-2,-1,-3,-3,0,-2,3,4,-2,0,-2,-1,-4,-1,0,-4,-1,6,-6,-1,3,2,6,-3,-9,0,1,0,0,-6,0,2,0,3,3,-3,2,-6,-1,-4,-4,4,0,0,-8,-2,-3,-3,5,-11,3,7,2,1,-3,-3,-3,-2,-1,-1,0,-7,2,3,7,0,-6,0,0,5,-5,-2,-1,3,-3,-7,-2,3,1,-3,-3,1,-4,3,2,-5,-2,1,-4,7,-6,-2,9,-8,3,7,-1,3,-2,-4,2,-5,1,-7,-3,-8,0,5,-8,1,-2,4,-6,6,-8,-2,-1,3,5,-16,0,-3,-1,3,2,-4,0,0,-4,7,-1,8,-4,-8,3,3,-3,-4,-4,0,-4,1,0,-1,0,-4,-1,-4,7,2,4,1,2,-5,3,-3,-2,0,0,-4,-4,2,4,-3,4,2,3,2,2,-7,-4,3,-1,-5,-2,-1,2,-2,2,-5,3,-6,-5,2,0,-1,-1,0,-3,-2,0,-2,-4,-1,-2,2,1,-4,4,1,-3,-6,8,-6,-2,4,-7,-1,-1,-4,-1,3,-3,1,-2,-2,-1,-5,-1,4,4,0,-5,1,4,-5,-1,0,-2,-1,2,2,-2,-3,-4,1,1,1,1,2,-3,1,-5,-1,-1,-1,-2,0,-1,0,0,-2,0,-1,2,-7,0,1,-1,-1,0,0,-1,2,0,-2,5,-3,1,1,-3,-4,0,3,-4,2,-4,-1,-4,3,1,-2,-1,3,-2,-4,-3,1,-2,-3,0,-1,1,-2,1,4,-6,2,0,0,-1,-1,-3,-6,5,-5,0,-3,0,-4,2,-5,4,2,-5,1,0,6,0,-3,1,-1,-2,2,-2,-6,2,0,-1,-6,1,2,0,0,-10,0,0,-3,0,-3,-3,0,1,2,-2,0,1,-7,-4,-3,3,1,-3,1,-2,-2,0,-3,-1,4,0,-2,0,3,8,-6,-2,6,-2,4,-2,-3,7,-2,-2,-5,-3,0,2,-3,-2,1,-3,1,-2,-3,1,-6,-4,-2,-2,-1,2,0,0,6,-1,-1,0,2,2,-1,3,-9,-2,2,-2,-4,-3,-3,-2,5,-3,0,-3,0,-4,6,0,-3,12,-6,-3,-2,-4,2,0,2,-4,1,0,1,-3,-5,0,7,-3,-2,-6,-3,0,2,-3,-5,2,-7,2,1,-2,-2,6,-3,-1,3,1,-3,2,-3,0,-2,-3,-1,1,2,-1,-2,-2,5,1,1,-1,-1,0,-4,1,-1,2,-2,1,-4,-2,4,-1,-3,-3,0,2,-1,-3,-6,2,0,1,-2,-4,-1,-3,1,-4,-9,-3,-1,1,-4,2,4,4,-3,-5,2,-2,2,-4,-2,-5,2,-2,-7,7,2,-2,0,-1,0,-6,-1,1,1,-1,1,-2,-3,-1,-4,1,2,2,0,-5,-1,1,0,2,-3,-2,4,-1,-2,-4,1,0,3,-1,-2,-1,2,-2,0,-4,1,0,-1,1,-2,-1,0,0,3,1,-3,-1,4,-8,-5,1,-3,1,-5,-2,-1,-3,-2,4,1,-5,-3,2,-6,5,4,-4,-2,1,1,-2,1,-2,-2,-1,4,-7,5,1,-3,2,-5,8,-3,-4,-1,2,1,-5,-5,-2,1,1,2,-4,1,-2,6,-5,-6,1,-6,1,8,1,-5,-4,-6,1,4,-1,0,-4,1,-1,2,-1,2,4,-1,-2,-2,-2,-1,0,-3,0,0,0,2,1,-7,4,1,0,6,-6,2,-4,3,-1,1,-7,0,0,-3,-4,-4,3,3,-5,6,-3,-9,1,-6,-1,3,0,-7,-4,-4,4,1,-2,-1,1,1,-1,-1,2,-1,-1,-3,-2,5,0,-1,-3,-2,-4,3,5,0,-8,-1,3,-6,2,2,-3,-6,8,-3,1,-1,-3,3,-2,5,-10,8,-4,0,1,-4,3,3,-2,-6,1,-1,0,-4,-8,5,-4,5,-6,5,-1,-5,2,3,0,-2,4,-6,-2,-2,4,-3,-3,3,-1,-2,-2,2,1,-5,-2,0,-2,0,-2,-2,-5,-1,-6,0,4,-3,0,-9,0,0,5,2,-2,-1,-11,1,-2,2,-2,0,-2,-2,5,-2,0,-5,4,-4,2,-1,1,0,-2,1,1,-3,1,-2,-4,0,6,-6,7,4,-3,-4,-4,-2,-1,1,-2,3,-4,0,-1,-4,-1,-2,-1,-8,-5,10,4,-4,-1,-4,-6,7,1,-3,2,-1,-3,-2,-7,4,7,-11,3,5,-2,-2,0,-2,-1,0,1,-2,-2,0,-6,1,3,-1,-1,2,0,-2,-2,-8,0,2,-1,2,0,-5,8,-3,5,-2,0,3,-1,-1,-2,-3,-4,1,-1,-1,-2,21,-3,-45,48,-40,2,-25,60,0,15,0,-30,21,-6,9,26,-32,-18,58,-34,-27,-26,53,-4,35,-21,0,-8,10,23,-19,-21,-5,4,-6,-12,0,7,-1,-11,-2,8,-8,-5,2,2,-4,-3,1,1,-4,-4,-1,-1,-3,-3,-2,1,-4,-2,-1,1,-2,-1,-2,0,0,-1,-1,0,0,-2,-1,-1,-1,-1,-1,1,0,-1,-2,-1,-1,-2,-1,2,-1,-2,-2,-1,0,1,-2,0,1,-1,-2,-1,1,0,1,0,0,0,-1,0,0,1,-2,0,0,0,-2,-2,-1,-1,-2,-2,0,0,-2,-3,0,1,-1,-1,-2,-1,0,0,-1,-1,-2,0,0,-2,-3,-2,0,1,-1,-2,1,0,-1,-1,0,0,0,-3,1,-2,-1,0,0,-1,-2,-2,-1,0,-2,-1,0,-2,-2,-1,-2,1,-1,-1,-1,1,-1,1,0,-1,-2,-1,-2,-2,0,-1,1,-1,-1,0,1,-1,-2,-1,0,-2,-2,0,0,-3,1,0,-1,1,-4,-1,-1,1,-2,-1,-1,0,-1,-3,0,-2,-1,-2,-1,0,-2,-1,0,2,-1,0,0,0,0,-2,-1,-2,0,0,-1,-1,-2,1,0,0,-1,-1,-1,-2,-1,-1,-1,0,-1,1,-1,-1,-1,0,-2,-2,-1,-1,-1,-1,-2,0,-1,-1,-1,1,0,-2,0,0,-1,-1,0,0,0,-2,-1,0,-1,-1,-3,-1,-1,-1,1,-2,-3,0,-2,-1,0,-1,0,0,0,-2,1,-2,0,-2,0,1,0,-3,-1,2,-2,-1,-3,-1,0,-3,-3,0,-1,-1,1,-1,0,-1,-2,-1,0,-2,1,-1,-2,-3,-1,-1,-1,0,-1,0,-1,-3,-1,1,-1,-1,1,-1,1,-2,0,-1,-1,-1,0,-2,0,-2,0,-1,3
0,-1,-3,0,-1,1,-3,-1,0,0,-1,1,0,0,-1,-1,-1,1,-1,0,0,1,-4,-1,0,1,-2,-2,0,0,-1,-1,1,0,-1,-3,1,2,-1,-1,-1,-1,-1,-1,-1,-1,-1,0,-1,1,-2,-2,-1,-1,-3,-1,-1,2,0,-1,1,0,-1,0,-1,-1,-1,0,0,0,-3,-1,0,-2,0,1,-1,-1,-2,0,1,0,-2,0,-2,-2,-3,1,-2,-4,-1,-1,-1,-2,-1,-1,1,-3,0,-1,-2,-2,-1,1,-1,-1,0,-3,-1,-2,-1,1,-1,-2,-2,-1,0,-1,-2,0,0,-3,0,-1,-1,-2,-1,1,0,-2,-1,1,0,0,0,2,-1,-4,-1,0,-1,-3,0,0,-1,-1,0,-2,-1,-2,-1,2,-1,-3,0,1,-1,-3,0,-2,1,-1,1,-1,-1,-1,-1,1,-1,0,0,0,-1,-2,-1,-1,0,-1,1,-1,-1,-1,-2,0,0,-2,0,0,0,-2,-1,2,0,-3,-1,1,0,-3,-1,0,0,-1,1,0,1,-2,0,0,-1,-4,0,-1,0,-1,-1,1,0,-3,-2,-1,0,-2,-1,1,1,-2,0,0,2,-1,-1,0,-1,-2,-1,0,0,-1,-1,-1,1,-3,0,0,1,-2,0,0,-2,-1,-1,2,1,-3,-1,0,0,0,-1,0,1,-1,-2,-1,1,-2,1,-1,-1,-1,0,-2,-1,-1,0,-1,-2,-1,-1,0,-1,-3,-2,0,-1,-1,0,0,-2,-1,0,1,-2,0,-1,0,-3,-1,1,0,-1,-1,0,-1,-1,-2,-2,-2,-1,-2,0,-2,-2,-1,1,0,-1,0,0,-2,-2,-2,1,-1,-2,-1,0,0,-3,0,1,0,-2,-1,-1,-1,-3,0,0,0,-3,-1,-1,0,-3,0,-1,-1,-2,0,0,-2,-2,-1,1,0,-2,-1,1,0,-2,0,-1,-2,-1,-1,0,-2,-3,0,1,-1,-2,-1,0,-1,-3,2,1,0,-2,-1,0,2,-4,-2,0,0,-2,0,0,0,-1,-2,0,0,-1,0,1,2,-3,0,-1,0,-2,-1,0,-1,-2,-1,1,-1,-2,-1,0,-1,-1,1,-2,0,-2,-2,0,1,-3,-1,0,1,-3,-1,-1,1,0,-1,0,0,-3,0,1,1,-4,4,50,-86,10,3,-32,-9,72,-13,3,15,-29,23,-10,3,-2,0,-17,16,-4,-12,-9,26,-11,-11,5,11,-17,10,-6,0,-23,3,-14,-34,70,-15,19,-18,-17,19,-8,34,-43,-13,-2,16,-1,2,-13,-5,4,-10,16,45,-37,-87,25,51,-17,-1,-38,-6,12,-3,4,-2,-13,30,8,-24,14,11,4,-20,5,38,-66,1,-79,73,4,8,17,-14,2,-13,15,14,-9,54,-40,-14,-5,3,24,11,-5,-28,32,-42,100,-38,-8,-6,7,-32,28,6,-13,3,1,10,-18,-11,15,-15,7,1,9,-27,1,11,12,51,-63,38,-48,1,-13,11,13,-26,45,-47,12,-13,8,44,-65,-5,44,-55,1,34,-18,-24,32,-36,45,-22,6,-23,10,-1,-2,24,69,-91,39,-42,-5,24,13,28,-41,11,-16,-28,33,-9,16,8,-35,74,-24,-59,-21,9,23,23,-23,16,-23,3,-3,-9,47,-39,-57,38,80,-62,20,-50,12,43,-17,-8,-37,21,-5,8,-23,21,25,-20,-17,15,3,51,-112,49,16,7,10,58,-109,24,8,-7,42,-25,4,16,-4,1,-30,27,-45,-12,20,-10,40,-8,19,-19,28,-22,5,-18,39,-64,30,-39,37,-41,43,-45,30,-13,-4,43,-32,17,-22,40,-30,14,-10,-5,-4,60,-29,-74,-24,60,-9,22,-41,18,17,39,-20,-32,27,-47,-4,25,-15,28,15,-35,-20,23,7,6,9,-20,25,8,-40,-16,12,-12,-5,42,-52,-13,24,1,6,-18,53,-32,-9,5,-4,6,15,-9,4,11,-12,7,-15,-12,94,-84,-12,-27,-13,39,18,-6,-12,2,-26,37,-3,-20,13,3,-15,14,-6,65,-69,11,-27,19,18,12,-41,52,-11,-20,36,2,-39,2,4,-30,26,32,-32,-57,25,-6,34,-2,-42,-12,-3,-21,16,9,7,-4,-1,-3,-3,21,-9,-43,1,-25,29,6,13,-19,7,7,-2,13,-25,14,25,-30,-11,9,9,5,28,-7,-11,23,3,-11,11,-2,-12,24,-24,14,-19,11,1,-12,39,-77,-15,38,-27,11,10,-21,3,12,-20,27,8,-16,3,-22,-7,23,20,-6,-46,5,-41,60,34,-11,4,-7,-32,36,-1,-22,15,-1,6,18,-41,3,-16,21,-2,45,-46,-28,18,5,32,-32,5,-25,34,-9,28,-64,6,-2,-10,17,3,-21,34,10,-11,16,-26,23,-31,35,3,-18,4,-21,8,18,20,36,-69,7,32,-41,32,-36,-9,-9,-9,1,14,-22,-8,35,-9,18,5,-50,29,-51,18,-8,-6,50,3,19,-27,-17,17,-7,-7,-2,13,-8,20,-17,35,-40,1,-6,-13,25,-12,-5,0,14,-28,-26,42,26,55,-91,-20,-19,6,16,-21,13,7,11,3,-9,-13,27,3,-47,-18,19,15,-11,3,3,44,-44,-40,45,-36,31,-11,-5,-41,30,0,6,-17,16,24,-33,-41,-4,59,-33,22,-14,-27,9,16,-10,38,-11,0,25,-14,6,-6,22,-40,9,-4,4,-17,57,-61,9,18,-4,13,-6,-18,34,-26,-12,-18,2,26,48,-15,-30,12,4,42,-72,24,-47,14,12,2,18,-11,19,-49,30,-9,10,24,-29,-50,9,2,37,-28,-6,5,-8,18,18,-7,-8,27,-20,6,-6,16,-6,16,-11,-2,-7,-2,-19,19,-19,34,-13,19,-31,5,6,-10,16,-4,4,-4,-19,0,50,-44,23,-58,63,4,-31,24,-41,-10,21,11,11,2,-13,-2,-5,17,-38,-15,-2,5,26,11,-41,-15,30,-15,29,-16,-5,43,-52,-17,4,46,-69,-30,-6,-16,17,17,-24,7,50,-16,36,-25,8,4,-17,-5,22,-65,28,-59,-2,50,-18,66,-41,-19,5,3,25,11,1,-5,-21,5,39,-64,20,-29,32,-22,8,3,-10,-1,21,23,-27,23,14,-43,37,9,76,-81,14,-48,-12,58,-30,22,-30,25,-19,43,-32,18,-10,-3,-13,14,-18,4,1,-6,48,-54,-4,13,1,12,-17,41,-42,16,-44,49,-17,3,34,13,-35,8,-13,-2,13,25,24,-17,4,-12,13,-21,9,-12,4,-20,-17,6,15,-10,-16,18,-26,39,11,-22,-14,7,14,21,-9,-25,-29,26,4,-16,9,4,61,-91,14,-7,-5,32,8,-3,-20,26,-70,14,-12,25,19,-28,-28,-4,43,-41,5,-9,27,17,2,27,-5,9,-23,29,-39,-23,43,-5,16,-18,-21,-16,-24,14,6,-3,8,5,7,-11,39,-40,-23,-12,0,22,-10,6,-11,14,-42,-15,11,7,18,14,-25,-4,16,-12,2,5,36,-41,-22,22,17,-23,17,-26,-1,-30,53,11,3,26,-62,27,-12,16,9,-8,-12,42,-74,-7,-4,-15,4,29,-26,22,19,-21,-7,9,28,1,-18,-11,1,7,-9,8,33,-22,24,-22,13,-6,13,16,-30,11,-10,2,9,-1,-8,-7,7,-1,-11,1,1,-3,-11,4,3,36,-35,0,-6,8,7,-7,2,-13,5,-10,7,-6,-4,6,3,-6,4,-1,-1,-8,5,-2,1,1,-2,-1,-1,-2,-2,0,1,-2,-2,1,-1,-2,0,0,-3,-1,1,-1,1,0,-2,-1,-2,-1,-3,-2,2,0,-2,0,0,0,-1,-4,0,-1,-2,1,-2,1,-1,-2,-1,1,-3,-1,1,0,0,-2,-1,-1,-2,-2,0,-1,-2,-1,0,0,-2,0,-1,-2,0,-1,0,0,-2,-1,0,-2,-2,0,-2,-1,-2,0,-1,-1,-1,0,1,-1,-2,2,-1,-2,0,0,-1,-2,0,-1,0,-1,1,1,-1,-2,-1,0,0,-1,-2,1,-2,-2,-4,-1,-1,-1,-1,0,-1,-2,0,0,-2,-2,-1,1,1,-3,2,-1,0,-1,-1,-1,0,-2,-1,0,0,-3,0,-1,0,-1,-1,1,-1,-3,0,1,-1,-1,0,-1,0,-4,-1,0,-2,0,-1,0,0,-2,0,0,-1,-2,-2,0
0,1,0,-1,1,-1,0,1,0,-2,-1,-2,-2,-1,0,1,-2,0,-1,-2,-1,-1,-1,2,-3,-2,0,-1,0,0,0,-2,-1,0,-1,-3,-1,-3,-1,-1,0,-1,0,0,0,1,-2,-1,1,-1,0,0,-1,-1,-1,-1,-1,-1,-1,0,-2,-1,0,0,0,0,-1,0,0,0,0,-1,0,0,-3,-1,0,-2,0,-1,-2,-1,0,-1,-1,-1,0,-2,-2,0,0,-1,0,0,-1,-1,-1,1,0,1,-1,-1,-1,-2,0,0,-1,-1,-1,0,-1,-1,-1,0,0,-1,1,-1,-1,0,-2,-1,0,1,0,0,-2,-1,-1,-2,0,0,1,-1,0,0,-1,-2,1,-1,-2,0,-1,-2,0,-1,0,0,0,-1,-3,-1,-2,0,-1,-2,0,1,-2,-1,-1,-1,3,-1,-2,2,-3,-1,-1,0,-2,-1,0,-2,1,0,0,-2,-1,0,0,-1,-1,-2,-1,-2,0,0,0,0,-4,0,-1,0,-1,1,-6,-1,-2,1,1,-1,1,-3,0,0,1,0,0,-1,-1,0,0,-2,-1,-2,0,-1,-2,-1,-1,-2,-1,-1,-1,3,-1,-2,-2,-1,0,-1,0,-1,-1,0,-1,-1,-1,-2,0,-1,-3,0,-1,-1,1,-1,-2,-1,-1,1,0,-1,1,-1,-1,-2,-1,-1,1,-1,-2,-1,0,-1,-1,1,-1,0,-1,-1,-2,-1,0,0,-3,0,2,-3,-3,-1,-2,2,0,-2,-1,-1,-1,-1,-1,-2,-2,0,-1,-1,1,-1,-1,-2,1,-2,0,-1,1,-1,-1,-1,-2,0,-1,-1,-1,0,1,-2,-1,-1,0,-1,-2,1,-2,0,-3,-2,-1,-1,0,-2,-1,-1,1,0,-1,1,-2,0,-1,-2,1,-2,-2,-1,-1,0,0,-1,-3,-1,-1,0,0,-1,-1,0,0,-1,-1,0,1,-1,-1,3,-8,0,0,-1,1,-2,-2,-2,2,-1,1,-2,0,-1,-1,-1,2,-6,1,-3,2,3,-1,10,-20,-3,-4,1,8,2,-2,9,-8,-3,-2,0,11,-7,-11,-12,7,4,9,2,-17,-6,54,-23,-3,-15,1,29,-19,28,-21,-18,-10,6,-5,13,6,0,-14,-3,10,2,-10,-9,12,39,-28,-1,-16,10,19,-17,2,-15,-2,1,7,-18,-1,3,-4,-11,-16,0,5,-2,12,8,34,-19,9,-12,2,9,-35,15,-21,-4,43,-53,-18,-18,30,27,-9,4,-26,0,-5,3,4,-5,16,2,-15,7,3,7,-5,4,-8,23,-15,2,5,9,-6,-22,-25,5,-45,31,6,-20,14,0,16,-3,11,2,14,-24,0,-4,-42,39,5,16,-39,-12,8,-29,26,-12,11,22,-18,-7,3,-5,28,-14,22,-5,4,12,-3,-4,7,-20,25,-26,-17,27,-13,15,6,-5,-12,7,-14,18,-25,24,29,-76,45,-18,-15,45,-13,14,2,-9,-12,4,-2,-9,14,-30,5,9,-22,11,-37,2,2,24,-67,-41,4,19,35,7,-16,-6,18,-10,13,-16,22,-16,-21,32,3,22,22,-81,69,-24,47,3,4,8,-17,22,-24,13,-11,-19,-6,30,-2,8,5,2,-13,-10,-11,31,-41,-4,-15,18,14,12,-21,38,-60,-6,62,-82,79,-12,1,7,-20,-2,17,1,-14,19,-27,8,-39,-28,-4,20,63,12,31,-39,17,-12,-7,13,-9,-3,-6,-15,-18,21,-14,20,-5,19,-4,22,22,17,-51,23,20,-43,11,-13,-11,5,-6,-8,-10,46,22,-35,-7,-38,28,10,-2,8,-28,-19,0,-5,3,-16,-9,58,-30,21,-17,-28,7,16,2,13,8,-21,2,-12,1,-3,0,4,-9,15,47,-69,92,-38,54,50,-24,-3,-19,-22,-2,-5,-2,17,-12,-14,-17,8,-30,63,-79,-1,29,-4,-24,10,-4,15,35,-47,7,-1,-13,25,-8,-36,-3,13,-72,29,10,-14,-27,0,-2,27,5,1,-5,-11,-1,-10,21,-6,88,-41,74,-52,34,-25,28,-3,20,9,-28,5,-28,7,-29,-13,6,2,-14,39,23,2,-70,36,-23,37,12,-16,-8,4,-12,-9,-12,-41,45,25,-33,72,-71,-2,-22,-28,7,1,-12,8,17,-31,25,-1,2,-2,-15,32,12,7,-31,47,7,35,25,-80,16,3,14,0,-10,8,-8,43,-37,-80,41,-47,36,3,13,-26,-4,24,-5,11,10,-25,-19,-25,74,8,-18,57,-12,34,-40,4,1,-31,28,-24,-13,6,-11,-47,30,25,-35,-5,-27,-30,47,29,-40,23,-7,-7,8,-5,18,4,-8,4,-19,68,-9,17,23,-52,-39,81,-32,-44,-1,-49,25,35,-3,11,3,-21,28,-12,-62,-50,38,-101,-1,18,13,15,5,-12,13,-11,28,21,-13,2,3,35,-97,115,-66,87,4,-6,5,-15,1,-5,24,-27,24,2,4,-15,25,23,-24,93,-32,-37,52,-53,60,0,-2,-14,2,-25,10,-8,6,-34,29,50,-72,97,-56,-77,61,-63,44,-3,-17,-6,13,-17,7,13,-14,-36,14,-2,34,-78,74,-2,4,27,0,7,-38,0,18,18,-1,-16,6,-13,-2,61,-74,53,42,6,-20,-50,-27,77,-76,-31,17,-24,7,-4,-16,-10,24,4,1,-3,44,9,-25,-45,-7,-24,106,-2,-3,-25,7,35,-26,41,-32,-3,35,2,4,-80,6,5,-13,16,-16,2,-11,11,4,-3,-27,41,15,-16,-45,24,33,22,-1,-11,7,-23,5,-5,-1,-37,4,-37,49,16,8,29,-36,17,17,-4,-13,10,-21,3,-16,-23,32,-50,25,31,69,-40,-41,10,-13,29,-20,-19,9,-2,-15,9,-27,25,-9,6,4,-25,-13,23,37,-3,60,-45,-14,12,0,-1,-4,-4,-43,41,-54,2,31,-38,-6,24,-6,26,-94,17,-25,-18,36,5,1,-9,-21,28,-12,-20,10,-31,3,-2,44,-39,34,-44,22,16,-26,27,-21,8,-7,9,98,-42,6,-22,-25,12,3,2,4,12,-33,-4,-9,29,-1,6,-14,-9,49,-26,-12,-2,-4,23,-22,11,-4,37,-21,42,-16,39,-53,-25,13,-8,14,-20,-5,-2,11,-17,-30,60,2,-65,55,-17,6,-4,10,-16,7,8,-7,0,12,-3,-17,-17,-19,39,7,-9,12,24,-6,-101,1,26,-25,45,1,-10,-3,11,5,-15,12,1,42,38,-7,-40,14,32,-6,12,-37,-6,-11,4,-4,-6,-4,-21,18,10,-22,8,28,36,4,-22,-26,-1,20,3,-2,-27,-3,14,-4,-9,-29,41,-59,-9,64,5,41,-19,-30,-15,17,-33,7,1,-9,3,-7,-17,7,-13,12,35,-16,28,-50,6,-7,0,4,-1,-17,1,17,11,-38,2,2,10,32,-17,14,-5,33,-65,-1,-19,4,6,7,-17,14,32,-10,40,-26,-29,22,15,-11,30,15,-89,7,6,-9,15,-8,-4,-62,10,19,9,6,34,-41,23,-14,18,-20,11,18,-75,15,-12,-5,51,14,-18,33,-16,-7,26,-9,-9,22,-14,-7,-7,4,1,-52,-1,37,-93,33,-35,51,7,13,-32,-5,25,-9,21,-32,21,3,4,-15,0,2,21,-17,25,-18,7,-10,-2,15,0,-3,2,0,2,-3,-3,0,1,-3,4,3,16,-6,-6,1,-3,-5,5,-1,-1,-2,2,3,2,-6,-3,-4,3,-3,-3,3,1,0,-1,-1,-3,-8,1,-1,1,-1,-1,2,-3,-2,-1,0,-2,-1,-1,0,-5,0,-1,1,-1,0,-1,0,0,0,1,-2,-3,2,-4,1,-1,-1,1,-3,-1,2,-1,0,0,-1,-2,-2,1,-3,0,-1,0,-3,1,4,-9,-2,0,-1,2,-1,1,-1,-1,-1,0,-3,0,1,0,-2,-1,0,2,-8,1,1,-3,4,1,1,-6,1,-1,1,1,-1,-1,0,-1,-1,1,-4,-1,0,-1,-3,-1,0,-2,-4,1,0,-2,0,2,-4,2,-1,-1,2,0,-1,0,-1,-1,-1,-3,0,-1,1,-2,-2,0,0,-1,-1,-1,0,0,-1,2,-4,-2,-1,-1,2,-1,-2,1,1,-1,0,-2,-1,0,0,-2,0,0,0,-2,-1,-1,1,-3,0,-1,0,-1,0,-1,-2,0,-1,-2,0,1,-1,-5,-1,-1,1
-1,-1,-2,2,0,-1,0,2,-1,-1,0,-2,1,-3,-1,1,-1,-2,1,0,0,-3,-1,-1,-1,-1,-1,-1,0,-3,0,-1,-1,-2,0,0,-1,-3,0,-1,-3,-2,-1,0,-2,-1,0,1,-1,-2,-1,-1,0,-2,-2,0,-1,-1,1,-1,0,-2,-1,0,0,-1,0,-1,0,0,-1,0,0,-2,-1,0,0,-3,-2,-1,-2,-1,-1,2,0,-1,-2,-1,-1,-2,-1,0,0,-2,0,0,1,-1,2,0,-1,-4,1,-1,1,-3,0,0,-1,-1,-2,1,-1,-1,-2,1,0,-1,-1,-1,1,0,0,0,-2,-2,0,0,1,-2,-2,0,1,-2,-2,-1,0,-3,-1,0,-1,-2,-2,0,-1,-2,-1,-1,0,-1,0,-1,0,-1,0,-1,2,0,-2,-1,0,-4,-1,0,-2,-1,-1,0,-1,-2,-1,1,0,-1,0,0,0,-1,0,0,0,-2,-1,0,-1,-1,0,-1,0,-2,-1,-1,1,-3,-2,0,-1,-1,-1,-1,0,-1,-1,0,-2,-1,0,0,-1,0,0,-1,8,41,-79,-1,-9,2,29,-1,-3,-3,11,-8,9,-14,4,6,-7,-23,50,14,39,-68,-16,44,-40,0,9,-63,-21,-4,-3,14,13,3,12,0,-13,24,4,-24,-2,-37,63,-31,-4,8,-22,25,35,-27,-27,67,-51,15,-8,-20,3,29,-23,-4,13,-4,5,14,-19,51,-15,11,-30,36,-14,17,15,-35,10,-13,-7,33,-20,47,-20,-20,7,-48,48,-55,29,17,23,-54,-1,-21,-12,17,-6,-34,11,39,-53,-4,46,3,1,-19,-42,65,23,-58,16,3,44,19,-74,-7,-17,17,27,-15,11,-3,51,-69,-1,-18,16,9,-4,31,-63,22,13,22,0,-9,-28,-13,-14,21,0,57,-64,20,8,-4,10,-6,12,-25,46,-28,-22,20,-52,-4,9,-20,60,7,-17,2,-1,0,16,-5,7,-2,-4,3,-68,47,14,-17,26,27,45,-89,-22,12,27,5,48,-50,-34,41,-61,22,-9,6,11,2,-45,14,21,-50,-1,20,-25,55,-45,-16,55,-16,-17,38,-6,32,4,-33,7,-18,90,-96,27,-32,3,49,-58,-7,17,-17,13,-11,-40,95,-56,7,57,-82,14,1,-12,43,20,-10,-11,-4,7,3,38,-27,-81,39,-34,5,101,-67,-5,7,-28,61,-58,25,14,-5,0,18,-18,-6,-11,41,-11,19,-67,37,12,-3,-45,13,7,32,-38,-60,20,-28,39,-12,-3,-17,29,35,-22,-21,27,-1,47,-13,-21,-29,-17,23,8,7,-19,-9,46,-37,-6,-2,18,-35,23,-13,9,32,2,41,-28,18,-29,85,-41,-57,-5,-33,17,6,18,-5,-34,12,39,-54,34,4,-31,-10,69,-33,-43,13,-16,102,29,-37,31,-23,-4,7,47,-80,-1,-15,18,10,-14,0,12,-25,-63,43,-15,26,43,56,-79,-6,9,-23,12,-7,2,8,17,-17,24,-11,-69,13,13,-20,11,14,-26,-2,38,-18,-2,-36,23,54,51,-99,-39,72,-42,66,-33,8,-9,7,6,-22,-11,-1,11,-9,-10,62,-79,22,-24,21,14,-30,2,-56,34,-46,38,16,28,-5,-17,-3,19,22,-77,64,-40,30,49,-61,6,-33,15,2,28,-19,17,10,8,-41,57,-96,17,-26,62,-44,76,-68,12,-2,-36,60,-57,30,-16,38,2,31,-43,-22,-7,26,18,15,14,-15,15,-22,12,7,-4,10,-29,34,-50,20,-48,59,85,-87,25,-1,-13,-13,29,-55,20,27,-44,43,-86,45,1,2,1,24,-42,31,8,-16,30,-12,63,-64,-7,-42,7,12,17,-9,-19,19,14,-30,18,-4,50,-73,5,-14,14,45,2,-30,-55,3,44,29,-29,-24,8,6,-8,22,-26,28,2,-18,3,-19,29,91,-126,15,-76,-10,80,-21,14,-24,44,18,-69,-3,-29,113,-37,-3,-17,62,-45,-25,22,-29,87,-3,-13,-6,1,7,1,-38,8,-51,6,12,9,80,-89,-56,30,-7,17,-16,18,30,-3,-44,57,3,5,-21,-52,67,-34,-30,45,-37,-23,32,-16,-22,9,28,-2,36,-9,-2,-21,60,-23,53,16,-46,-12,5,-36,-8,46,-23,36,-39,16,-8,20,-1,-5,3,-31,-15,38,-8,-3,27,-76,-31,5,-9,4,25,-7,17,-25,-22,88,29,-62,0,-38,5,61,-16,-16,0,2,6,-34,62,-16,4,40,-15,12,13,-60,-4,4,9,13,-43,8,9,-22,-2,13,-3,-11,-4,19,25,-8,-59,-2,-33,-7,34,16,35,-4,16,-79,-1,-1,23,13,-8,27,-20,1,-9,26,-13,9,24,-13,-11,4,50,-52,-1,32,28,-52,-69,23,-35,18,36,-51,0,44,-35,-7,8,26,-12,-34,-14,44,-16,83,-111,61,8,44,-39,13,-29,20,17,-41,74,-85,-15,-29,4,8,-18,16,6,-28,19,30,-3,-12,0,-7,18,21,40,-52,10,-53,1,-29,58,28,-15,5,2,0,6,22,23,-22,-46,13,3,-27,-36,29,3,74,-49,3,-21,-1,32,-8,-65,31,33,-3,9,35,-32,-13,40,-14,-42,27,-5,34,22,-21,-7,7,-42,33,-25,-54,30,8,18,-55,26,60,-106,-17,36,-62,61,31,13,20,-101,11,-4,9,-33,17,9,7,3,57,-52,-27,28,-20,28,-6,15,19,-19,72,-79,10,24,-73,46,-17,8,18,25,-45,38,-16,-6,6,-29,48,-77,73,-9,-20,66,-3,-37,-5,13,-57,62,-52,25,41,-64,32,40,-94,47,-30,60,-11,21,-37,-49,41,-49,20,-8,3,-8,16,27,-6,38,-80,61,-78,125,-43,28,21,-80,11,-35,16,-10,33,-57,91,-50,29,10,-24,-29,93,-15,-61,93,-116,-9,45,-49,22,9,10,-56,14,-4,4,9,-10,-41,77,35,-3,14,-49,0,21,75,-112,11,18,32,-27,80,-66,-44,23,-25,58,-55,28,-19,-1,28,-9,32,-47,10,-10,18,2,2,-34,-11,13,-27,11,-7,-9,7,21,-14,21,-18,5,-7,0,-12,-4,8,11,-17,9,-4,1,-7,2,-2,-6,2,5,2,6,-2,-1,-3,1,-1,0,1,2,-6,2,0,-1,-4,0,0,1,-1,2,0,1,-3,-1,0,1,-6,-2,-1,0,0,0,-1,1,-1,0,0,1,-2,0,-2,-1,-2,0,-1,0,-2,-1,0,0,-2,-4,-1,1,-3,-3,1,0,0,-1,-1,0,-2,0,0,-1,-2,-1,0,0,-3,-1,-1,-1,-2,-1,0,0,-2,0,1,-1,-2,0,0,2,-1,0,0,-1,-1,-1,-1,-1,-2,-2,-2,1,-2,0,0,1,-2,0,-1,-2,-1,-1,1,-1,0,0,-1,1,-3,0,0,1,-3,0,-1,-2,0,-2,-1,-2,0,-2,0,0,-1,-2,-2,-1,-1,0,0,-2,0,-1,0,-1,-2,0,-1,-1,-2,-1,1,-2,-1,0,-1,-2,0,0,-1,-2,0,1,0,-1,0,-1,-2,-2,-1,0,2,0,-2,1,-1,-3,0,2,0,-1,0,-1,-1,-3,-1,0,0,-1,-1,-1,-1,0,0,0,-1,-1,-1,0,-1,-1,0,-1,0,-4,1,0,-2,-2,-1,1,-1,-2,0,-2,1,-3,-2,-1,-1,-2,0,-1,-1,-1,-1,1,-1,-3,-1,0,0,-1,0,-1,-1,-2,0,0,-2,-2,0,-1,1,-2,-2,-1,1,-2,1,1,-2,-1,-3,-1,-3,-2,-1,0,0,-4,-1,0,-1,-3,0,1,-1,0,-2,-1,-1,0,1,0,-1,-3,0,1,0,-1,-2,-1,-1,-1,1,0,0,-4,-2,-1,2,-2,-2,0,-2,-2,0,0,0,-4,-2,1,0,-3,0,-1,-1,1,-1,1,-1,-1,1,-1,-1,-1,1,0,-1,-2,-2,-2,2,-2,-1,0,0,0,-1,1,1,0,-1,0,0,-2,-1,0,0,-2,0,0,-1,-3,-3,0,1,-1,0,-1,-1,-1,0,-1,1,-3,0,0,-2,-3,-1,0,-1,-2,-1,0,-2,-2,0,0,0,0,-1,0,0,-3,-1,0,1,1,-1,-1,-1,-2,-2,0,1,-1,-1,0,-1,-1,-2,0,-1,-2,1,0,0,-2,2,-2,-1,0
-1,-3,0,-1,0,0,0,-1,-1,-2,-2,0,0,-1,-2,-1,0,-1,-1,0,-1,2,-1,2,0,-2,0,0,0,-1,-2,-1,0,-1,0,-1,-1,-1,0,-1,0,-1,-1,-1,-1,0,0,-1,-3,0,0,1,-2,-2,-1,-1,-2,0,-1,0,0,-1,0,0,-1,-1,-1,-2,0,0,0,0,1,-4,2,-1,-2,-2,-1,-1,-2,0,-1,0,0,1,-1,0,-2,1,-1,-3,-2,0,1,-1,-1,-2,0,0,-1,0,-1,0,-2,0,0,-1,-1,-2,0,-1,-2,-1,2,1,-1,0,-3,0,-1,-1,-1,-2,-2,-2,0,3,-1,0,1,-3,-2,-1,-2,-1,-2,-1,1,-1,-1,0,-1,-1,-2,-1,-1,-2,-2,-1,2,-1,-1,-3,0,-2,-3,0,-1,1,-2,1,0,-1,-2,0,0,-2,0,0,-1,0,-1,-1,0,-2,-2,-2,-1,-2,-1,0,1,1,-3,0,0,0,-2,0,-1,0,-2,0,0,-2,0,1,-2,-1,-2,-2,0,0,-2,0,-1,0,0,-1,1,-1,-2,2,0,-1,-1,-1,-1,1,-2,-1,0,0,-2,0,-1,-2,-2,0,-1,0,-2,0,1,-1,-1,-1,0,2,-2,-2,-1,2,-2,0,0,1,0,0,0,-2,-2,-1,1,-1,-2,-1,0,-1,1,0,-3,-1,-3,-1,0,0,-3,-2,-2,-1,-2,1,1,0,-7,-3,1,1,1,2,1,-1,-1,-1,0,1,-1,-1,0,-1,-2,0,0,-3,1,-1,-1,0,-3,-1,1,0,-2,0,-1,3,-3,-1,0,-1,-2,-1,-1,-1,-1,-2,-1,2,-3,-2,-1,-1,-1,-1,0,1,1,-2,-1,-1,-1,-1,1,-1,-2,-1,-2,-1,1,-2,-1,0,-1,0,1,-2,-1,0,-3,0,-1,-1,0,-1,-2,-1,-1,0,-2,0,2,-1,-1,0,-1,-1,-2,-1,1,0,-1,-3,0,1,0,-1,0,-2,0,0,-1,-1,-1,0,-2,1,-2,1,-1,-2,-1,0,-1,-2,-1,1,0,-1,-1,-2,-2,-2,-4,-2,1,-24,-15,31,-18,-17,3,-33,50,85,-35,-50,51,81,-17,-5,-88,19,34,12,11,-41,-24,0,10,-41,1,19,-72,11,17,8,-6,-9,45,9,-51,-11,17,-47,45,32,-10,-28,14,-50,15,25,29,-14,13,-13,-4,35,-19,-7,4,31,6,-24,12,-28,55,-17,-39,47,15,-61,87,-30,-35,40,-63,4,23,-5,25,-32,-40,36,-17,4,-14,23,-36,-39,-19,54,25,7,-30,8,-44,-6,-54,48,0,-23,-1,-22,38,-11,1,-2,5,-13,24,-43,37,0,-22,2,38,-24,0,8,-3,11,-2,7,-22,12,-48,67,-11,-19,4,-5,10,7,-50,32,-46,20,79,-51,-3,-18,20,12,-29,-30,41,12,-17,-16,48,8,-14,19,-103,61,33,-45,48,-33,15,31,-31,-50,90,-14,8,-22,-55,41,2,-47,38,-1,4,-9,-10,-1,37,-40,41,-5,5,7,-42,-33,15,7,-13,-8,-11,37,-40,32,-21,44,-42,14,-16,-5,13,-23,13,22,-48,16,19,-66,66,47,-7,-25,6,-28,18,-14,-6,-15,18,-19,-6,66,11,0,-3,-31,-22,20,-9,7,-15,3,-27,18,5,2,-5,-7,-46,26,0,10,-24,38,-9,-6,-17,26,15,-21,-4,-6,11,-9,-17,-24,3,27,3,45,10,-37,-22,41,-13,0,10,-31,23,-19,1,-26,33,-35,26,-17,-13,6,12,1,0,-22,2,-6,8,30,-7,-9,4,-45,8,13,1,-23,13,-26,14,11,-12,-1,-20,-3,25,-38,27,38,-4,-9,-5,-21,23,22,-20,11,-14,-2,-2,-2,-15,32,-33,7,1,4,18,7,-7,-3,-27,-16,36,10,6,-8,-14,-22,36,-24,-37,61,-5,-22,1,-2,0,19,-9,-41,21,-8,8,10,-27,-2,13,-9,3,40,4,-17,-23,5,2,12,8,-13,2,-2,6,-10,-9,39,-9,4,-20,-46,44,-2,0,11,-9,16,-16,6,-22,-3,6,-25,-6,16,4,1,-23,-8,33,24,-21,0,-2,-2,-3,-14,-10,11,-23,25,5,-22,-30,-2,10,26,7,-30,14,-32,19,0,-4,-7,10,7,-7,-2,8,-4,-23,-1,54,-3,7,-32,-7,4,10,-13,-7,11,-10,25,-29,-57,75,26,-21,-13,1,1,16,1,-35,2,-14,34,-9,-12,-44,46,2,-16,-21,35,-16,20,-5,-14,11,-1,-6,3,1,10,8,-23,-32,23,25,-16,12,-22,31,-16,11,10,-3,-27,12,-3,-3,-13,2,-2,17,1,-33,12,11,-4,-6,0,4,10,-7,-8,6,13,-8,-11,10,-6,19,-15,-49,49,-3,-19,22,-4,-9,-20,14,5,8,-29,5,18,-23,25,-17,-12,17,14,-1,-9,5,-5,-7,0,12,1,-18,-3,-2,1,5,-1,-18,-4,33,5,-1,-7,-21,33,-5,-19,17,-10,-4,13,-9,-29,6,9,-7,23,-18,-5,32,-18,6,17,-20,6,-7,-15,6,-12,7,-10,-5,-25,29,9,27,-37,24,14,-35,11,-30,23,-11,-4,-44,59,-18,26,-46,31,10,-15,7,0,-8,4,-3,-29,35,-18,16,2,-34,6,27,-15,-15,3,-2,12,-53,51,14,-16,10,-29,-7,-2,13,7,11,-56,22,24,5,-8,-9,22,13,-14,-7,-50,18,32,-2,-23,-4,-19,31,-18,4,6,-64,49,18,11,-16,-27,-8,25,-1,-8,-19,20,-14,31,-12,-17,1,-5,-6,18,30,-31,29,-15,4,11,-5,-26,13,-13,-12,-7,22,-15,7,-14,24,46,-32,-2,-69,81,12,8,2,-40,3,0,-12,-5,16,-26,-1,-13,-33,68,26,-27,-5,-28,29,-25,-17,27,0,-17,4,-27,10,-1,28,-19,4,24,-4,11,-31,3,-10,15,-11,26,-12,-22,7,-18,6,-15,30,0,-8,-3,-12,-20,45,-14,-4,0,-26,5,11,-7,-9,0,3,1,19,18,12,-17,27,-6,-44,14,-3,-8,-4,-2,-14,-2,-37,75,17,-28,12,-42,10,-5,-22,0,-7,25,21,-11,-48,14,12,6,-1,6,-18,24,18,2,17,13,-10,-29,-6,-4,4,-16,5,-6,-12,8,13,6,22,-4,17,-29,-24,4,-27,-18,-36,19,61,-13,18,-67,1,15,-39,21,20,2,-4,10,13,-10,-7,-4,-24,2,-2,3,7,-58,104,-6,-22,19,-29,35,-17,-13,12,-6,-16,7,-41,45,-28,16,33,-8,-45,32,11,-25,2,-18,-28,30,16,-18,33,-31,5,-12,-16,3,13,29,-20,0,20,-22,3,-21,7,-3,2,-5,-5,3,3,-1,-4,10,2,-13,29,-20,12,27,-25,20,-22,-51,42,5,-16,14,-17,-3,0,10,-9,12,-5,-7,-5,4,12,25,-83,41,73,54,-47,-38,-43,33,-8,20,7,-27,16,-4,8,-28,16,5,-4,-33,23,21,-15,-14,18,-13,1,-8,9,-13,3,-10,1,1,-6,-5,10,-7,-5,-4,7,-6,-4,-2,-1,-3,0,-1,1,-3,1,-4,0,2,-2,-1,1,-3,3,-3,0,-1,-2,1,1,0,-1,-2,0,-1,1,-2,0,-2,-1,-2,1,-3,0,-5,-1,-1,1,0,1,-1,-1,0,-2,-1,-1,-1,-2,0,-1,0,-1,-1,-3,0,-3,0,-1,-3,0,0,0,-1,1,1,-3,-1,0,0,-2,-1,0,-1,-2,-1,-1,-1,-2,-1,0,-1,-1,-2,-1,-1,-1,0,-3,-1,-3,-1,0,0,-1,-1,-2,-2,0,-1,1,-2,-2,0,-1,-1,-1,-2,0,0,-3,-1,1,-1,0,0,-1,0,-1,-3,0,1,-1,0,1,-1,-2,-2,-1,-1,-1,0,0,-1,-3,-1,0,0,-2,0,-1,-1,-1,0,0,0,-1,-1,0,-1,-1,0,0,-1,-4,-1,-2,-1,-2,0,-1,-1,-2,2,0,-2,-2,-1,-1,-2,-2,-1,0,0,0,-1,0,-1,-1,0,1,0,-3,-2,-1,0,-2,-1,-1,0,-2,-1,0,1,-2,-1,0,0,-2,0,-1,0,-1,-2,-1,1,0,0,-2,-2,-1,1,1,-1,-1,0,-1,-2,-2,0,2,-1,-1,0,0,1,-2,-1,0,0,-1,0,-1,-2,2
-1,-1,1,-1,-1,-1,-1,0,0,-1,0,-1,0,-1,-1,-2,1,-1,-1,-1,-1,0,-2,-2,-2,1,-2,1,-1,0,-1,1,-1,0,0,0,0,-2,0,0,-1,-1,1,0,1,-1,0,-1,-1,0,-2,-1,0,1,-2,-1,-2,0,0,-4,0,0,0,1,0,1,0,-1,-1,-1,-1,-1,0,-2,0,0,0,-1,0,-1,-2,-1,-1,1,-1,-1,0,-2,0,-2,-1,1,-1,-1,-1,-1,-2,1,-2,-1,-1,1,-2,1,-2,-1,0,-2,-1,-2,-1,0,0,-2,0,-3,1,-1,-1,-2,0,0,0,-1,-1,0,-1,1,-1,-1,-1,-2,1,0,-1,-1,-1,-3,0,-1,-1,-1,-2,0,1,0,0,1,-1,-1,-1,-1,0,0,-1,-1,-3,-1,2,1,0,-1,-2,-2,-2,-1,-2,0,-2,-2,1,0,0,0,-1,-1,-1,0,-2,-1,0,0,-1,-2,-1,-1,-1,-1,-1,-2,2,-2,0,0,-1,-2,0,0,-1,-1,-1,0,-1,-2,-2,0,-2,0,-1,-1,-1,-1,0,-1,0,-1,0,-1,-1,-1,-1,0,0,0,-1,-2,0,1,0,0,-1,0,-1,0,-1,0,-2,-1,0,-2,0,0,-1,-1,-1,-2,-1,-1,0,-1,-1,0,-3,0,-1,1,-1,-1,-2,-2,0,-2,0,-1,-1,-1,0,0,-1,0,-1,0,1,-1,-1,0,-1,0,0,-1,0,1,0,0,-1,0,1,-1,0,-1,0,-1,0,-1,-1,1,-1,-2,-1,-1,0,0,-3,0,1,-2,-1,-1,-1,-1,0,-1,0,0,-3,-2,-2,-1,-1,-1,-1,-1,-3,-2,-1,-1,2,-2,-1,-3,1,0,-1,0,-1,-1,-1,0,-1,1,0,-1,-1,-1,-1,-1,-1,-1,-1,1,-2,-1,0,-1,-1,-1,-1,-1,-1,-2,-1,-1,-1,-1,-1,-1,-1,-1,-2,-2,-3,0,0,0,1,1,-2,-1,-1,-2,-1,-2,0,-1,0,0,1,1,0,-1,1,-3,-1,0,-2,-1,-2,-3,-2,-1,-1,-1,-1,-1,-1,2,-2,0,1,-1,-3,-1,-2,0,0,0,0,0,-1,0,-1,-1,0,-1,0,-1,0,0,0,-2,-2,1,-1,0,-2,-2,-2,1,-1,-2,-1,-3,-1,0,-1,0,0,-1,0,0,0,-2,0,-1,0,1,-3,0,-1,-1,0,-2,-2,-2,1,0,0,-2,-1,0,0,-1,-1,-1,-1,1,1,0,-7,5,25,7,-83,13,-19,27,10,-14,28,-4,78,-51,-2,-11,6,-7,3,-40,-28,2,14,-44,124,0,102,-32,-85,89,-46,-31,-112,44,-7,80,1,-38,-17,-9,18,-73,5,17,65,-46,-116,-43,31,101,2,7,-32,36,4,26,-46,3,-4,30,78,-105,14,-7,25,32,-38,31,-54,-5,-8,32,-14,-29,22,-7,-70,-20,75,1,-20,52,-17,-98,125,-48,-7,7,-89,31,40,-29,39,48,-31,-8,-34,-5,-45,38,-8,-11,12,-21,3,14,48,-20,53,-73,-5,16,-37,22,-34,41,5,28,-7,-25,9,18,-8,-6,23,-11,-19,-36,65,11,-10,25,-25,-27,18,1,25,8,-41,38,-19,-3,-27,6,-2,19,-22,10,3,-19,13,-11,1,3,5,-9,-5,25,-43,0,7,-10,20,8,8,-5,38,-6,-10,-12,5,0,-34,-1,29,-8,4,-26,-10,59,-5,33,-8,-50,20,-45,27,8,-9,6,-34,-11,0,0,-12,26,-26,7,-2,-2,-7,3,20,0,-5,-23,30,-6,-10,10,8,-16,4,5,7,-14,11,6,-17,9,-9,3,-23,-1,-2,-6,-5,2,-16,22,-27,57,0,-11,13,7,-37,4,-3,7,-23,-9,-4,1,24,-16,43,-25,8,-9,27,-8,18,-33,-3,-10,-16,25,-20,-11,13,-5,4,-12,19,-2,-8,-19,16,-21,4,-10,18,-8,-25,-4,-9,23,-9,23,-9,18,-2,11,-1,4,-4,-2,-2,-3,26,0,-17,5,-2,1,-9,-5,4,-7,26,-2,7,-34,-4,2,-4,18,-4,-15,12,-8,4,22,-35,13,-4,0,26,-34,-11,48,-31,17,-25,-9,3,-12,28,-22,20,-12,-2,2,9,-4,5,-12,12,-2,14,-5,-21,9,5,5,-32,-6,1,-14,14,-9,19,-7,-2,8,-4,1,6,2,-18,12,-18,24,-21,-7,-4,-9,12,25,-6,-15,-21,-2,17,1,-10,-3,0,27,7,-45,-4,26,-22,16,-7,-1,20,-21,-20,33,8,0,-10,-34,10,19,10,-13,-3,14,16,-27,-6,-23,22,-6,-9,10,-13,20,-15,-21,38,-8,-11,25,7,-32,35,-36,12,20,-20,-11,-20,-1,-15,2,14,-29,8,11,20,16,-2,14,-40,19,-22,9,12,-1,-3,-10,0,12,-25,1,-8,-2,-4,40,-11,-3,14,-21,12,5,5,-26,-5,-2,19,2,-30,-5,36,20,0,-5,-3,-15,4,28,-15,1,-3,-17,-4,-5,-2,22,1,-10,15,-19,-31,25,13,21,-18,2,-8,-9,4,27,1,-29,1,-2,-15,1,18,-22,38,-18,15,-27,25,-3,-7,12,-42,17,11,-17,-7,7,12,-1,29,-13,2,19,-10,-49,3,-22,-1,11,1,-15,3,4,1,-6,34,9,-32,-12,35,-26,-7,-40,-8,44,-7,-6,-33,19,-7,8,-6,1,-33,-21,54,-2,17,19,-40,10,30,24,-38,-53,10,-1,15,-38,53,-4,-36,-16,52,4,-48,31,-4,9,23,24,-30,-12,-15,29,-51,-21,17,1,4,-2,-13,-14,-26,33,32,-47,-5,-1,-17,8,-10,27,-46,51,9,-38,-9,-38,39,25,-10,-53,48,9,-3,8,-46,5,25,8,-9,-28,43,11,24,26,-19,34,-28,13,12,-33,-19,-15,31,-3,-8,20,-16,-16,-21,48,26,-16,9,-23,-14,46,-15,-1,-12,2,11,-11,-13,-1,28,-6,-25,5,-31,-8,13,28,-12,-18,-12,9,4,-24,24,-11,17,-29,-1,6,44,9,-9,3,-18,27,-11,-13,-24,9,27,-21,-25,-1,66,-6,19,2,-38,16,-30,-12,-11,-16,42,-6,-35,-14,-17,68,-5,7,-29,11,13,7,6,-16,-10,1,11,-43,1,-18,4,9,-9,26,24,5,-13,15,0,-24,-14,7,-6,0,3,-4,0,-1,1,-10,13,-19,29,-10,2,24,-25,7,7,-6,7,-26,-11,-2,-8,16,7,-10,-16,22,17,13,11,-19,-16,-3,16,-12,-1,0,-6,5,-6,-20,10,27,-13,-20,37,-8,0,-4,-11,11,-2,3,-10,19,-25,7,-4,-22,15,7,5,-7,-13,15,3,-2,4,-5,-14,-1,-1,6,0,-1,-6,8,2,-1,-12,-4,-6,-7,8,-7,19,-7,9,-16,-9,-9,10,-7,-20,28,-20,9,8,-29,25,24,7,-7,-12,17,-19,2,16,-12,1,15,-6,-12,17,-34,21,16,-28,16,-18,1,-2,10,-18,18,-14,6,0,-17,-3,7,7,-6,-25,-25,34,12,6,-7,-8,1,6,8,26,-35,-10,-10,-13,8,10,14,-2,-3,-33,68,-10,-27,6,-13,7,-19,6,-3,-5,-12,8,32,-30,14,-37,3,2,7,-3,-27,15,-3,29,-27,-14,-4,10,23,-8,8,1,-11,23,-21,-87,78,89,-30,111,-128,95,-2,-19,-7,74,31,-79,24,-34,34,28,-45,-65,24,26,0,-44,3,12,18,-37,-5,5,23,-18,-11,8,12,-24,-8,2,9,-13,2,5,2,-16,2,1,2,-10,1,3,4,-5,3,4,2,-4,2,-2,1,-2,-2,2,1,-3,-1,-1,1,-4,-1,0,2,-3,0,-1,-3,-4,4,-2,-3,-5,2,3,2,-1,-2,0,-1,-1,-3,-2,-1,-1,-3,0,1,1,-1,0,0,-1,-2,1,-1,0,0,-1,0,-1,-1,-1,-2,-2,-1,-2,-1,0,-2,0,0,1,-2,0,-4,0,-1,-1,1,-1,0,-2,-1,-2,-1,-2,0,-1,1,1,-2,0,0,0,-1,-1,-1,-1,0,0,1,-2,-2,-1,1,0,-2,0,-2,-1,-2,0,-1,-2,0,-2,-1,0,-1,1,-1,0,-1,-1,0,-3,-1,-1,-3,-2,-1,-1,1,-1,0,-1,0,-2,0,-2,0,-2,-2,0,-1,0,1,-2,-2,2
-1,0,-1,-2,-1,-1,0,-1,-2,0,-1,1,-1,-1,-1,0,-2,1,0,-1,-2,-2,-1,-2,0,0,-1,-1,-1,-2,0,-1,-1,0,0,0,-1,-2,-4,-1,-1,-1,0,-1,-1,-2,-1,1,0,-1,0,-1,0,2,1,-2,0,1,-1,-1,-2,-1,-1,0,0,0,0,-1,0,-2,-1,-1,-1,0,-1,0,0,-2,-2,0,-2,-1,-1,-1,0,-1,-1,-1,-1,0,-2,-2,-1,-1,-1,0,0,0,1,0,0,1,0,-1,-1,-1,0,-1,-1,-2,-1,0,0,0,0,-1,0,-2,0,-1,-1,0,-1,0,0,-1,-1,-2,1,-2,-2,-1,-2,-1,0,1,-1,-1,-1,1,-3,-1,-3,0,1,-2,0,-2,-1,-1,1,-2,0,0,-2,-1,0,0,0,0,-2,-2,-1,0,-1,-2,-1,0,-1,0,0,-1,1,0,-1,-1,-1,0,-1,-1,-1,0,-2,-2,0,-1,0,0,-1,-2,-1,0,-2,-1,-1,-1,0,0,-1,0,-1,-1,-1,-1,1,0,0,-2,-1,0,-1,1,-1,-1,0,-3,0,0,-1,0,0,0,0,0,-2,0,1,0,0,-2,-2,0,-1,-1,-1,-2,-2,-2,0,-1,0,-1,-1,1,-2,0,0,-1,1,-1,-2,0,0,0,1,-2,-2,0,-1,0,-1,-1,-1,-2,-2,0,-1,-2,0,0,0,0,0,1,-2,0,-1,-1,1,-2,0,-3,0,0,1,-2,-1,1,-1,1,0,0,0,-1,-1,-1,-1,-2,-1,0,1,-1,0,-1,-1,-1,-2,-1,-1,-1,-1,0,-1,0,-1,0,-1,0,0,-1,0,-1,0,-1,-1,-2,-2,-1,-1,0,0,-1,-1,-1,-1,-1,0,-1,1,-1,-1,-1,-2,0,-1,-1,-2,-1,0,-1,-1,-2,0,0,1,-1,-1,0,-2,0,-1,-1,0,-1,-1,0,-1,-1,-2,-2,-1,0,-1,0,-2,-1,-1,-2,-1,-1,-2,0,-1,1,1,1,1,0,-1,0,1,0,0,-2,-2,0,-2,0,-1,-1,-1,1,0,-1,1,-1,-2,-2,-1,-1,0,-1,1,0,0,-2,-1,-1,0,-2,-1,-1,1,0,0,1,-2,-1,-20,-4,55,-66,8,-20,-19,49,20,-24,-12,-21,-2,11,-29,22,23,-16,-4,-12,9,19,4,-46,15,-4,-8,8,7,13,-17,7,13,1,11,3,-1,8,-13,14,-2,-46,-18,69,4,-4,12,-33,-6,17,1,29,-32,11,-7,22,-17,-4,26,-20,-8,13,-29,-13,-14,11,47,-46,24,-4,-39,3,-16,-8,10,18,-48,12,-1,-12,29,-8,-11,17,2,-17,9,13,-6,35,-72,21,-14,-26,59,-38,26,12,0,0,-3,-18,-16,33,-33,-26,-7,-7,4,16,6,31,-53,-6,3,-19,8,28,-15,-4,9,-14,29,12,-10,33,-27,-16,16,2,36,-13,31,-7,27,-32,5,-22,26,30,-17,34,-50,-4,31,-33,-3,2,-8,-19,25,-4,19,1,-36,-4,-9,45,42,-101,40,0,-5,18,-8,22,-9,33,-30,6,41,-75,62,-13,-87,3,18,-21,35,48,-20,0,-55,-6,-2,7,-4,26,-34,-19,0,43,-3,-25,63,-5,12,8,-5,10,-4,-5,15,8,-25,13,-17,-10,-5,-1,2,-3,-6,1,-7,-4,11,-18,5,34,-14,-2,8,-37,-7,8,22,33,-16,-17,22,-1,-11,-21,-1,-37,67,-7,14,-79,-4,4,-29,35,-11,-13,-3,26,-19,30,-49,-30,0,-27,0,-2,67,-96,41,5,-22,46,-10,12,-14,35,-29,14,-11,-4,-20,79,-21,35,26,-96,6,36,-11,13,0,-23,13,-4,9,3,-9,-21,-28,38,-63,53,-11,-8,54,-15,15,4,-16,14,0,-60,20,31,-16,41,3,-29,26,21,-33,-5,7,-4,-1,4,30,-33,-24,-1,5,0,-26,58,-33,-17,-5,-18,-19,3,27,-3,-12,-4,5,2,62,-38,-44,-18,45,35,18,-26,-18,1,18,0,-24,-35,-10,-30,50,-29,27,-70,-5,4,9,-1,16,-16,-12,13,-16,19,7,17,-12,-25,14,5,9,66,-3,18,-38,45,14,-9,-2,-39,13,28,-16,17,-17,19,-44,-9,24,15,-3,-10,-9,10,7,1,15,-21,12,23,-15,28,-13,12,6,-31,-15,28,14,-61,6,-35,-8,14,17,17,-27,1,1,16,1,-7,-12,34,-7,59,-7,19,-93,34,8,10,1,-35,10,-33,37,-9,-3,18,-4,-20,-8,21,-11,13,-53,27,34,-49,42,-76,28,37,-10,25,-15,-18,22,6,-2,20,-28,-49,50,-80,-23,44,-82,15,81,-56,34,25,-13,-11,26,3,8,-32,-12,31,-12,35,-13,41,-13,39,-86,68,-5,-37,25,-42,6,62,-64,-20,6,21,11,-53,59,0,91,-37,4,-83,48,13,-11,-2,-47,7,-5,17,1,29,-16,-33,7,62,-116,12,55,-95,39,43,-15,-32,15,-28,-24,84,-45,22,-11,-4,66,27,-53,-32,34,-29,-12,47,-29,-15,24,18,-13,-16,16,-25,5,1,-41,52,-7,3,8,-40,9,41,-59,8,13,-10,82,-28,-12,-25,-1,-4,30,-8,-13,29,-24,-13,20,-68,-6,35,40,-38,13,-83,67,7,8,-2,9,-3,33,-43,-25,32,-24,60,-22,-20,82,-32,-66,1,-16,13,7,20,-83,23,-24,-3,0,-6,-22,31,18,-54,72,23,10,-26,51,-35,-37,123,-42,-17,24,16,-52,11,-57,10,6,-12,17,39,-45,24,-23,-64,58,18,2,-33,7,0,-19,-11,18,-26,-23,20,-6,-4,50,-73,-18,3,52,7,17,13,-21,16,4,-16,5,-1,6,-18,-19,60,14,-76,4,16,12,14,20,-10,28,15,-10,-12,-1,13,-11,21,-34,56,-70,32,-3,-2,18,-48,-7,11,10,-34,-12,-6,7,-10,-23,30,6,12,-79,30,-8,6,4,-25,12,-12,17,-11,-3,-17,58,-43,-8,3,-12,3,40,-31,39,-76,36,33,-7,10,-9,0,-12,17,-14,15,-6,6,-3,-5,12,77,-105,1,4,53,30,-19,-13,-15,2,-2,9,-13,8,-4,16,18,-45,6,0,-46,50,-2,5,-55,-21,24,40,-68,23,6,-10,10,15,23,7,-4,-6,3,-21,50,-78,-1,-22,-3,19,-7,-26,-1,-37,75,-78,23,47,-23,10,-15,9,3,13,-24,31,-16,-1,42,8,-40,57,53,20,-15,-21,8,-29,-25,15,6,-8,6,0,-10,7,9,4,-17,-37,57,68,-48,5,-5,-6,2,12,-8,-11,-19,19,-6,-24,25,-12,8,7,-5,33,-7,-5,10,33,-45,63,-4,-15,1,-38,29,-12,14,-48,-11,73,-80,15,-15,-23,13,4,11,-3,-57,12,-38,73,43,-12,-3,-61,15,0,-4,-28,44,-8,-3,-3,12,18,-48,-11,27,-22,9,-71,20,-10,1,20,-15,-20,52,5,12,30,-10,34,-42,-4,9,-39,66,7,0,-32,-5,-66,11,14,1,-2,-35,23,8,-18,55,-29,-54,39,6,-4,-22,-2,20,-7,-28,30,-56,0,-12,41,9,-1,-1,-23,-18,31,56,-11,-31,36,-6,-49,84,-45,-13,8,6,2,31,-16,-7,18,-21,23,-32,7,-7,-23,-10,-16,44,9,-35,16,2,-21,15,-6,-36,26,-10,-8,0,-5,11,-6,-2,2,-3,9,-8,2,3,-5,1,3,0,-1,-3,7,0,-1,-1,0,1,-1,0,-2,-2,-2,-2,2,0,-1,-1,-1,0,0,-2,1,-2,0,-5,-4,1,-3,-2,-1,-1,1,-1,1,1,-1,0,0,0,0,0,-2,-1,-2,1,1,-1,1,0,-3,0,1,-1,1,-2,-2,0,0,-1,-2,-2,-1,-1,0,-1,-2,-1,-2,-1,0,-1,0,-1,-2,-1,-2,0,-1,0,-1,0,0,0,-1,1,0,-1,0,0,-1,0,-1,0,-1,-1,-1,0,-2,0,0,-1,0,1,0,-2,0,-1,-1,0,0,-1,0,-2,-1,-1,0,-1,-2,-1,-1,-3,0,-1,0,-1,1,0,1,-2,-2,0,-1,-1,0,-2,-3,0,-1,0,-2,1,-2,-2,0,-1,0,0,0,-1,-1,0,1,1,-1,-1,0,-2,-1,0,-1,-2,-1,-3,0
-1,-2,0,0,-1,-1,-1,-1,-1,-2,-3,-1,-2,-2,1,1,0,-1,-2,-1,-1,-2,-1,0,-1,0,-1,-1,1,-1,-2,-1,-1,-2,0,-1,-1,-2,-2,0,-1,-1,-1,0,0,0,0,0,-2,-2,-1,-1,2,-2,-1,0,-1,-2,-2,0,-2,-3,-2,-1,1,-4,-1,-2,-1,-1,-1,1,-2,-1,-2,-1,-2,1,-2,0,1,-2,1,0,0,-2,1,1,1,-1,-1,0,-1,-2,-1,-1,0,-3,-1,1,-1,-2,0,0,0,-3,1,0,-2,-2,0,-2,-1,-2,0,-1,-1,-1,0,2,-1,-1,0,-1,-2,-1,0,-1,0,-2,-1,0,0,-2,0,0,0,0,0,-1,-2,-1,0,-2,1,0,-4,0,0,-2,0,2,-2,-3,1,1,1,-1,0,2,-4,-1,-3,0,-1,0,-3,0,-1,1,0,-2,0,1,-2,-4,2,-2,0,-1,0,0,1,-3,2,-6,2,-2,-1,-3,4,0,-1,-1,0,4,-4,-3,-2,1,1,-2,0,-4,-3,1,-3,6,-4,-1,4,-7,4,-3,0,1,2,-1,-11,9,-8,-3,0,-3,7,-4,0,4,-2,1,-3,4,-8,-1,1,-4,-1,6,-5,-2,1,0,0,-2,3,2,0,-5,1,2,0,-3,-1,-2,3,-2,-2,2,5,0,0,-6,-11,4,-4,2,3,-8,1,-6,7,2,2,5,-11,9,4,-6,-7,8,-1,-3,11,-7,2,2,-9,-2,-5,4,-4,-5,4,-6,3,0,0,-4,8,-8,1,4,-2,3,-7,-5,0,7,-8,0,0,-3,2,-4,1,1,-2,6,-1,-1,9,-7,-2,-3,-4,-5,2,-1,1,-4,-1,-4,-2,-5,4,2,6,-7,-4,5,1,0,-3,-2,-7,0,0,-6,0,5,3,-3,-6,4,3,-1,-8,5,-3,-1,1,-1,-2,-1,-3,2,3,0,-6,1,-4,-1,-1,-3,-2,-2,5,-4,-5,2,-6,4,1,-1,4,-6,3,1,-2,-5,-2,1,2,-3,0,-7,-1,10,-6,3,-11,-4,3,-5,-4,2,-1,0,-1,-4,1,-4,3,1,-6,14,-12,3,-3,3,-2,3,6,0,1,-4,-4,-3,0,-1,3,-9,11,-9,4,1,3,-1,2,-5,0,1,-5,3,-6,2,-3,6,-5,-4,5,0,-2,3,-6,-5,1,-5,1,1,-7,3,-3,-4,7,-1,0,0,-5,1,-1,-3,-4,4,-1,-4,-3,-3,-1,1,-3,2,-1,1,-2,-5,6,-3,6,-8,1,-2,0,-1,2,-1,-1,-8,2,5,-7,1,-1,2,-3,-1,-2,9,-9,1,-1,-1,3,4,2,0,-3,-3,-7,0,-4,-2,0,-3,-3,2,-2,-4,5,2,2,-5,3,-6,-1,1,-3,1,0,1,0,2,-5,3,-3,1,0,-1,2,3,-7,3,-6,3,3,0,-4,-2,-1,-4,1,-3,2,-2,0,-4,9,1,-1,-1,-4,0,-2,-1,0,-2,-4,0,-1,2,-2,-4,1,-12,5,2,-2,-9,1,-5,7,3,-2,-3,0,-1,-2,-1,-2,3,3,-3,0,7,-5,4,-1,-5,-5,-1,-3,1,0,-5,-6,7,-3,5,-9,3,2,-3,1,-1,-2,1,6,-4,2,0,2,-8,1,8,-9,1,1,-10,-2,0,1,2,3,-7,2,4,-8,-8,2,4,3,3,-10,7,-3,-2,0,1,4,-2,-5,-1,-6,-1,5,1,-2,0,-7,-2,4,3,-2,-4,2,-4,-2,-5,1,-6,3,-6,7,-10,1,9,-9,-1,-3,-4,4,-2,-1,-4,-3,2,3,-8,-2,0,2,0,-4,3,6,-7,0,1,0,2,0,-3,-2,-6,-1,-2,4,0,7,-7,-3,4,-4,4,-5,6,-1,-5,-5,-2,4,-2,2,2,3,-3,-2,1,6,-1,-3,-3,-9,-1,0,-3,-4,1,-3,2,4,-10,-1,-3,-3,4,-2,-4,-7,0,0,3,-5,-1,4,0,-5,5,1,0,13,-14,1,-6,7,1,0,2,-1,-3,-3,0,-12,-3,3,5,4,-3,-1,-2,-2,4,-1,3,0,0,-7,0,-1,0,-1,-4,5,-4,-5,5,2,-3,0,-1,3,0,3,-4,-3,0,-3,-2,1,1,0,-3,-4,-1,2,-2,-1,1,-2,1,-1,-2,2,0,-2,-3,-3,1,3,-5,-5,3,2,-3,-6,5,-2,2,1,3,-1,-3,0,0,1,-3,0,-8,-6,7,0,-1,0,-3,4,-5,1,0,-4,1,0,-7,-2,1,-5,3,2,-2,-3,-2,2,2,-2,-2,-1,-2,-1,-1,0,1,-5,1,1,-4,0,-3,1,-3,3,0,-8,-1,1,0,0,2,-6,2,3,1,-3,0,4,-2,-1,-4,-2,-1,2,-2,-1,-1,1,7,1,0,-2,-2,1,-1,3,-8,-2,3,-2,0,2,-3,-6,-5,2,-4,3,1,-6,3,1,-6,-2,0,3,2,-1,-3,-2,1,5,-1,-3,-1,0,1,-2,7,-6,0,-5,1,-2,-1,-6,2,1,-1,-5,-4,0,0,-2,-2,-1,5,1,-2,0,-1,-2,1,-4,-1,-1,-2,0,-1,-3,-5,6,-3,0,6,-4,-2,0,-2,-1,-1,0,-1,-2,-3,-1,2,2,-2,3,-4,-4,-4,1,3,0,3,-2,-3,3,3,-3,4,-2,-1,-2,-4,3,-2,-1,1,-1,2,-3,-5,3,-1,0,2,-3,-1,-6,3,0,-3,-1,-5,-2,2,-7,0,2,0,1,1,-3,-1,-3,1,-1,2,2,-2,-3,0,-1,0,2,0,4,-4,4,1,-4,2,2,-2,2,-2,-1,2,-5,1,-1,-1,1,0,-5,5,-5,-2,1,-4,4,-4,-2,-3,1,-2,2,0,0,-3,-1,0,-2,2,-1,0,-5,4,-4,-3,1,-1,0,1,-7,2,2,-2,4,-4,3,1,-1,-2,0,-3,-2,0,0,-1,-4,1,2,2,-2,-4,9,0,1,-1,-2,1,-2,3,-4,14,27,8,-15,-3,-11,16,34,-42,-5,-24,5,9,-2,-7,-26,61,-90,10,23,33,-20,-23,28,-7,-2,-7,8,-10,8,-5,-3,-18,13,21,-12,-23,23,3,-24,-12,18,-4,-9,4,7,-5,-2,7,-4,-15,-5,-7,7,10,-3,-13,0,2,-7,2,3,0,1,-3,0,1,-1,-11,9,2,-1,-5,0,3,-2,-1,-3,0,-3,2,0,-3,0,-3,0,0,-2,1,-1,1,1,-2,0,0,-5,4,-1,0,0,-2,1,1,-1,-1,0,1,0,-4,-2,-2,-1,-1,-1,-1,1,-2,0,0,0,-2,1,-1,-1,-2,-1,0,-1,-2,0,0,-2,-1,-3,1,0,-1,0,1,0,-2,-1,-2,0,-2,-1,0,-1,-1,-1,11,-11,-8,2,-3,8,3,-3,-2,-1,-1,0,-2,0,-1,1,-1,-1,-1,-1,-1,2,0,-1,-2,0,-1,1,0,-1,-4,1,-2,0,-1,0,-2,-1,-1,-2,-2,-1,-1,0,-1,1,1,-19,3,-3,0,5,-1,3,-2,3,0,2,-4,-1,1,-2,-2,3,2,-2,-1,2,0,0,-2,-1,0,0,-1,1,-1,0,1,-18,1,-2,1,3,-2,2,-3,2,-2,2,-4,-1,1,0,-4,3,0,-1,-1,0,17,-14,2,0,-2,5,-2,-2,-3,1,-4,2,-6,1,-1,1,-3,1,-1,-1,-3,2,-2,-2,-2,-1,-6,-14,1,-2,4,4,-4,4,-2,1,0,0,-2,0,0,-2,-2,2,0,0,-1,1,-2,-1,0,1,-1,-1,-1,-1,-1,-1,1,0,0,-2,14,-11,-1,-1,-3,7,-1,-4,-4,0,-4,1,-5,-1,0,2,-3,-1,1,-1,-3,1,0,-2,-2,18,-14,0,-2,-2,5,-2,-2,-3,3,-4,0,-5,-1,-1,1,-3,2,-2,-1,-3,2,-2,-2,0,0,-1,-1,-8,-9,2,-1,6,1,-5,2,-2,0,0,0,-1,0,-2,-3,-1,1,-3,-2,0,0,-2,-1,0,1,14,-14,2,1,-3,5,-1,-3,-1,2,-5,2,-6,-1,0,0,-5,-2,3,-1,-5,3,0,-2,-2,17,-13,3,-2,-1,4,-1,-4,-2,1,-4,0,-6,2,-1,-2,-3,1,1,-1,-2,2,-1,-4,-1,-1,0,-2,0,17,-15,3
2,-4,1,-1,1,-3,-1,-2,-5,1,-4,-1,5,-7,-1,1,-1,-4,1,0,-11,0,0,-2,3,-7,8,-6,2,-5,-2,-2,2,2,-1,1,1,-3,-1,-4,5,2,-8,-1,-1,2,-2,-3,1,2,-3,1,1,-2,-3,1,11,-2,-2,0,-2,1,1,-1,-3,1,-3,0,-3,3,-2,-1,-9,-5,0,2,-2,-1,2,-8,2,-3,0,1,1,1,-4,-1,-1,0,-7,21,0,-3,0,-5,0,-1,-1,-3,1,-4,1,-4,0,2,-2,-4,-5,0,1,-5,-3,4,-4,0,4,-1,-2,1,1,-4,-1,0,-1,-5,-2,-3,-5,-1,-1,0,2,-4,-1,0,2,0,2,-6,2,-1,3,-1,1,-3,-6,1,-3,3,-6,0,1,-5,0,2,1,1,4,1,-4,-4,3,0,-9,0,-5,5,-1,-2,-2,-4,3,1,-2,0,2,1,0,3,0,-3,0,-1,0,-1,-4,0,-2,-1,3,-5,3,-1,-5,2,-1,0,1,-1,1,-4,0,0,-2,0,1,-1,-5,0,-3,-2,-4,-1,0,-2,3,1,2,1,2,-2,-3,-1,2,-2,-2,-1,1,0,-2,3,-2,-3,-1,-1,1,-2,-2,-1,1,-2,-1,0,0,-4,0,-2,-1,1,-1,1,-2,-3,-1,1,0,-2,-1,-1,1,-3,-3,-4,12,-3,-3,1,-4,0,2,-2,-2,-1,-5,4,-2,0,0,1,-1,-1,1,0,-4,-2,0,0,-1,-1,2,-2,-1,-1,-1,-1,-9,8,-3,1,-5,-2,-2,1,2,-2,2,-1,-1,0,-3,1,2,-8,14,-2,0,-2,-5,0,0,-4,0,-1,-1,-4,-3,4,0,-1,-8,6,-2,2,-4,-9,3,-2,2,-2,2,-4,1,0,-4,1,0,-1,0,-1,0,-8,17,0,-2,-1,-6,-4,1,2,-5,0,-3,2,-4,0,5,3,-8,17,0,1,-3,-6,3,1,-4,-3,1,-1,0,-2,-2,-3,-6,18,-2,0,1,-10,-1,5,0,-6,2,-4,-6,13,-3,1,0,-7,-1,0,2,-8,0,-4,3,-9,3,3,-3,1,-6,1,-4,-6,-1,-2,0,-2,-6,2,0,-1,6,-13,-8,17,1,3,-5,-8,-1,1,2,-1,2,-1,-1,-10,11,1,1,-3,-7,4,2,-4,2,3,-4,1,0,-5,-3,-3,-3,2,-1,0,-1,0,4,-8,18,-1,-2,-3,-8,1,0,3,-14,-2,-11,2,0,0,-5,-1,1,-3,5,-1,0,0,-4,16,-3,2,-2,-6,2,0,2,-4,-2,-4,2,0,-7,7,-2,-3,2,-3,2,-1,-3,-2,-1,-2,-1,-1,0,-1,-3,-1,-2,-7,4,-5,-1,3,0,-2,1,-1,1,2,0,1,2,-1,-3,0,3,-3,0,-1,-7,3,-3,0,-5,-1,1,0,-6,-2,1,-2,2,-1,-4,-1,4,-5,0,1,1,-7,4,-1,1,-4,-2,1,1,5,0,3,-8,-1,-4,0,3,0,-7,8,-1,-1,1,-3,1,2,-5,-2,3,-1,-1,0,2,-3,-2,-2,-1,-4,2,-1,1,-1,-1,-2,0,0,0,1,-1,-3,-7,14,0,2,-4,-4,0,-1,3,-2,1,-4,0,-2,-1,-1,1,-15,6,-3,-1,2,-4,1,-1,1,-1,0,-1,2,-1,0,0,0,-1,-3,-2,-7,9,-2,0,-3,0,0,1,3,-2,1,-1,1,-2,-5,-1,1,-1,-2,-2,2,-9,19,-1,-1,-3,-6,-1,2,2,-15,1,-4,3,0,-3,1,0,-3,-2,0,-5,14,-2,-1,0,-6,0,2,-1,-3,1,-4,0,-4,-1,1,0,-1,-2,0,0,-5,1,2,-3,-3,-2,-2,0,0,-10,15,-3,0,-2,-4,1,-2,4,-3,3,-15,4,-2,0,4,-6,15,-3,1,-1,-6,-1,1,3,-7,2,-2,1,-4,-3,1,4,0,-2,1,-3,-2,-1,1,-4,-3,1,-5,3,-6,-1,2,0,0,-2,-1,-3,-3,-2,-1,4,-12,0,0,-2,3,-1,-3,0,2,0,0,0,2,-2,-2,2,2,-7,9,0,-1,-4,-5,0,1,2,-2,0,0,1,3,-12,3,0,-4,3,1,-8,20,-1,-1,-1,-8,4,0,0,-6,2,-1,1,-4,1,0,0,-2,-1,-2,0,-5,-3,0,-1,-3,-6,6,-3,-1,1,-1,0,0,1,2,3,-2,5,-1,-5,1,1,-2,0,-3,0,-8,18,-4,0,-4,-5,-1,1,0,-7,-3,-3,3,-4,-3,0,0,-1,-1,1,0,-5,-1,1,-5,1,-2,0,-5,-1,0,-2,3,-3,0,1,0,-1,-2,-1,2,-4,0,1,2,-1,-2,-7,11,-2,0,-3,-4,-1,1,3,-4,1,-4,2,1,-4,0,0,0,-2,-1,3,-7,0,-1,0,-1,0,-1,0,-7,18,-3,-1,-1,-6,0,2,0,-3,-3,-2,0,-5,0,-2,1,-5,0,-1,1,-5,-1,0,-2,-2,1,-7,18,-4,1,0,-6,0,-1,1,-4,-1,-2,1,-3,-4,1,1,0,-1,0,1,-6,-1,2,0,0,1,-4,4,-5,-2,-1,-3,-2,0,-3,-1,-2,-3,4,0,0,-1,0,-1,-4,-5,2,0,-1,-8,10,-3,-1,-2,-3,0,-2,2,-3,-1,-2,0,-1,0,-1,1,-1,-7,19,1,-1,0,-7,-1,1,2,-5,0,-3,1,-3,0,1,1,-5,-2,-1,1,-3,-2,-5,1,-2,-2,0,-1,0,-3,1,1,2,0,0,1,-5,0,2,-2,-2,-7,10,-3,1,-4,-1,-1,-3,1,-1,2,-4,1,-1,-3,-1,2,-1,1,-1,-5,8,-2,-3,1,-4,-1,0,-2,-2,2,-2,3,-3,0,-1,1,-4,-1,-2,0,-1,0,-3,-3,-1,0,1,-4,1,1,-4,0,1,-1,-1,2,1,-4,-2,2,-3,0,0,-1,-1,-1,-3,0,0,-6,6,-3,-2,1,-5,-1,2,-3,-3,0,-2,3,0,0,-2,0,0,-1,0,0,-2,0,1,1,-2,0,-1,-2,-2,2,0,-1,-1,2,0,-7,12,-1,0,0,-5,0,1,-2,-5,0,-2,2,-2,0,0,-1,-2,-2,0,-1,-5,1,0,-1,-5,0,-3,-3,-4,-1,1,-3,2,-1,-1,0,1,0,0,0,-1,-1,3,1,-1,0,-2,0,-1,-1,-7,2,-4,4,-5,-4,1,1,2,-2,1,-1,4,0,-4,-1,2,-3,1,0,0,-9,15,-2,-1,-6,-7,1,0,4,-20,18,-4,1,2,-6,0,1,1,-5,1,-3,-1,-1,-2,-1,1,-1,0,-2,1,-4,-1,0,-2,-2,1,-2,-1,-2,0,-5,13,-3,-1,0,-4,3,1,-2,-2,0,-4,-1,-4,1,0,-1,-1,-5,1,0,-4,0,1,-8,14,0,-1,-1,-7,2,-1,2,-3,1,-3,0,-3,-1,3,-3,-3,0,-2,1,-2,-5,11,-4,-4,2,-5,0,0,-4,-4,3,-2,1,-1,1,-3,0,0,-2,0,-1,-3,-2,-1,-1,-2,-2,1,-4,-2,0,-2,2,1,2,1,1,0,-5,-1,2,-3,-4,1,0,-2,-1,-1,0,-2,1,-2,-4,-2,-1,2,-2,0,-1,0,3,-1,1,1,0,1,-3,-1,1,-3,-1,2,1,-2,-1,1,-1,1,-1,-2,0,-1,-1,-5,4,-4,1,-2,0,-1,-2,2,1,0,-1,2,-1,-3,0,1,-5,0,0,1,1,-2,-1,1,-1,-1,-2,0,1,-1,-1,-5,16,-3,-3,2,-3,0,-3,0,-2,0,-4,1,-2,0,1,2,-1,-4,1,2,-4,-1,0,0,-6,-1,-1,-2,1,-3,0,1,-1,-1,0,-2,1,2,1,0,-1,-2,-2,1,-1,-1,-1,1,1,-3,-2,4,-1,-1,-1,-2,0,-2,-8,11,0,0,-6,-5,0,-1,3,-2,1,-2,0,-4,-1,-1,2,-2,-1,0,1,-8,18,-3,-1,-3,-5,-2,3,2,-4,-2,-2,2,-6,-3,-1,2,-2,-1,-1,1,-2,-1,-1,0,-3,0,1,-1,-4,0,-1,0,-2,-1,-1,1,0,-1,0,0,-1,-1,-2,0,0,0,0,3,-2,-1,0,-1,0,-1,-2,-6,12,-1,1,0,-5,0,0,-3,-3,-2,4
0,1,-1,-1,-1,-1,0,0,-1,-1,-1,-2,-1,-1,0,-1,0,0,0,0,0,-1,-1,0,-1,-1,-1,-1,0,-1,-2,-1,-1,-1,-2,-1,-3,0,-1,1,-2,-1,0,-1,-1,-1,-2,-1,1,0,0,-1,-2,-1,0,0,-1,-1,-1,0,0,0,-1,0,0,-2,1,0,-2,0,0,-1,-1,0,-2,-3,-2,0,1,-1,-2,-1,0,-1,-1,0,0,-3,0,0,-1,1,0,-1,1,0,-1,1,-1,-1,2,-2,-2,1,0,-1,-1,0,-2,-1,-1,0,1,1,-1,1,-2,0,-1,-2,-1,-1,-1,-1,0,-1,0,0,1,-2,0,-1,-2,0,0,-1,-1,-1,0,-1,-1,-2,-3,-1,0,-1,0,-3,-1,0,0,1,-1,0,1,1,-2,-2,-2,-1,-1,0,-1,0,0,-1,-1,-2,1,1,-2,0,-1,-1,0,0,-2,0,0,0,-2,-1,-1,1,0,0,-1,-2,0,-2,-2,0,1,-1,0,-2,-3,-1,0,-1,0,-1,-2,0,-1,0,0,0,0,0,-1,-1,-2,-1,-1,0,-1,-1,-1,-1,-1,0,0,-2,0,-1,-2,-1,-2,-1,0,2,0,-1,1,-2,1,0,0,-2,-1,-2,-1,-1,-1,0,-1,-1,-2,0,-1,0,-1,0,-2,1,-1,-2,-1,-1,0,-1,-1,-2,0,-1,0,-1,1,0,-1,0,0,0,-1,-1,-3,-1,1,-1,-2,-2,0,-3,0,1,-1,0,0,-1,0,-2,1,0,0,0,1,0,0,-1,-1,-2,-2,-1,-1,0,-2,0,-1,-1,-1,-1,-2,-1,-1,1,-1,0,0,2,-1,0,-1,-1,0,-1,-2,-1,-3,0,0,0,1,-1,-1,-2,1,0,1,-2,-1,-3,-2,-1,-1,0,-2,1,-1,0,1,-2,0,-1,-2,-2,-1,-1,-1,0,-1,0,0,-2,-1,-2,0,1,-2,0,-2,-2,0,0,0,1,1,-2,-2,-2,0,-1,-1,-1,-2,-1,0,0,-1,-1,-1,-1,-1,-3,0,-2,0,1,0,-2,-1,-1,0,0,-1,1,-1,0,0,-1,-1,-1,0,-1,0,0,0,-1,-2,0,-1,-1,-1,-1,0,0,-1,-1,-1,-1,0,0,-1,0,-2,0,-2,0,0,-2,-1,-1,0,0,-2,0,-2,-1,-1,0,-1,-1,0,-3,-1,0,0,1,-1,-1,0,0,-1,0,-2,-2,0,-1,-1,-2,-1,-1,1,0,-1,-1,0,-1,0,1,-1,-1,0,-2,1,0,-1,0,-2,-1,-1,1,-1,0,-2,-1,1,-1,0,-2,-1,-1,-1,0,0,-2,0,1,-1,-1,-1,-1,0,0,-2,0,-2,-1,0,-2,-2,0,1,-2,-1,0,-1,-1,1,-1,-1,-1,0,-1,-2,0,-2,0,-1,1,1,-1,-1,-2,8,-49,1,38,-101,-4,-3,2,30,38,-24,2,33,6,27,-47,-22,4,1,-13,20,-4,2,7,4,4,-1,2,-16,14,1,5,-14,-8,8,3,20,17,0,-49,-18,32,-8,17,-9,-15,0,-2,4,0,-3,0,28,-15,-23,4,12,-6,-22,22,-6,-26,25,6,9,-1,-6,13,-5,4,12,4,-45,33,2,-10,30,-14,3,1,-16,18,1,-16,15,-18,-4,32,-77,-1,-13,-4,38,-14,-27,18,17,-46,39,-8,-40,8,-26,15,26,1,-4,3,2,5,38,-81,2,-8,17,-16,29,12,21,-39,-25,-5,10,8,2,-3,-6,21,10,26,-74,6,21,9,-29,70,-17,-17,38,-42,22,-52,-4,-9,3,9,-9,36,-46,6,4,8,-19,39,-27,34,-12,-9,14,-21,7,5,2,-3,8,-15,21,-28,22,44,-72,-6,40,-3,44,-33,14,-16,-8,13,-10,0,-3,-2,-3,-2,7,-22,58,8,47,5,18,-31,11,47,-31,16,-28,2,-17,5,-3,3,-11,-41,49,18,-19,39,-7,-6,-6,-13,14,-10,-30,27,-8,-21,-2,3,-6,-14,0,-21,-27,48,-18,47,0,1,-59,-55,-4,5,40,-16,8,-17,6,-5,7,-25,16,14,2,22,-34,-9,-23,-5,25,-7,-9,-3,7,-3,14,-2,-28,15,-18,-11,40,6,23,-69,-22,-18,46,10,9,26,-22,2,5,-1,18,-26,23,12,-66,-1,30,12,-46,4,-21,7,29,8,-6,-12,0,19,-13,-8,-2,-17,16,57,-27,14,-4,-17,40,27,-6,3,2,-13,21,-18,-4,-3,4,-2,-11,16,-16,-6,-5,21,20,-48,39,-63,-2,6,-9,35,-23,33,-14,19,-15,7,-8,23,18,-37,9,-20,-5,8,33,-40,4,-9,-3,30,-60,-35,3,-3,10,-2,-13,20,6,-14,-19,-1,8,23,26,-72,28,-21,4,68,-43,0,-28,25,70,14,-17,-10,-8,-12,13,-16,3,8,12,-69,-31,27,8,-13,15,-25,15,17,-9,50,-10,12,-1,-11,-4,27,7,2,-15,1,21,-26,13,11,3,-6,-63,61,-7,-3,-13,-10,9,-12,26,15,-5,9,-11,-45,15,42,-17,7,-34,6,-6,7,-40,-7,3,-4,6,-10,11,-10,-3,-17,-19,46,29,-1,6,-44,-21,39,-4,-5,-9,-12,11,7,-3,-10,11,-22,7,-15,10,49,22,5,73,-30,33,-35,16,-15,45,-19,-28,25,-42,10,-25,27,-6,0,18,-26,17,-17,-76,-23,68,-20,23,5,-26,33,-20,-25,-35,62,-19,82,-21,38,-51,-34,-13,-4,6,-10,-13,-14,19,-5,-5,-19,32,7,-26,-5,-5,-48,38,-9,-52,22,-41,41,32,-37,5,-3,9,4,31,-40,28,4,-2,-8,13,84,-47,-4,-3,-33,10,11,-11,-8,11,-47,20,-17,-8,16,5,-27,-5,39,-19,35,-36,-19,-19,12,-8,8,-1,-16,37,-11,20,-3,-17,-1,-20,7,1,-21,79,15,-8,-72,-5,-10,25,2,-21,9,-78,77,2,2,-4,11,-17,-36,87,-12,-16,2,-21,27,18,1,7,14,-24,0,26,-19,13,0,-36,-13,-10,-14,27,-13,19,-14,11,-11,31,-79,-1,12,13,23,-8,-6,-28,19,-21,13,-34,54,62,5,-13,-17,-5,32,-64,-10,-14,53,10,-7,-11,-16,15,-4,11,-50,5,32,22,-23,6,17,-72,-4,33,5,15,-22,-17,16,-34,1,-2,3,-31,19,25,12,-29,-9,9,-48,51,-11,2,19,19,-5,15,-17,6,-8,-17,-37,74,-10,-46,24,-24,41,8,-36,-1,12,4,1,20,-20,22,13,-19,-17,15,7,-7,10,4,-26,30,-12,-17,17,14,-67,-6,17,-28,24,6,-21,-7,20,-22,14,-41,13,17,-6,-15,-7,13,40,-18,13,-17,-19,17,-3,8,-11,-6,22,-13,5,-74,58,2,32,-6,-9,-85,43,-63,26,18,-21,35,-4,-10,-19,41,-28,25,-7,17,-31,56,-30,1,-4,1,7,49,-12,-2,-13,14,-5,3,-2,-5,8,-10,-24,-8,1,37,-59,13,-6,-3,27,-70,1,0,19,11,-7,-31,35,-7,17,-15,1,11,-26,7,-5,18,-11,13,-14,17,8,0,3,30,17,-13,-4,-14,5,-4,28,-3,-17,-10,18,-9,16,-75,9,5,-8,15,18,11,-8,51,-49,30,2,8,-24,6,-3,-1,-12,-7,15,-2,2,4,-39,56,-10,-30,37,-31,23,-46,-26,4,-5,-1,11,-4,0,2,3,-19,36,-23,-26,51,-35,-16,34,-41,-16,28,-5,4,17,-4,12,0,-3,1,-4,9,-3,18,-3,-33,22,7,-5,-4,-9,3,-1,4,-5,2,-3,0,-4,7,-2,-4,-2,6,-11,-8,3,8,4,7,-9,-5,-5,2,0,-1,-2,3,-3,0,-2,2,-1,0,-2,-1,-2,-4,0,2,-1,-2,-3,-5,2,-3,0,2,0,0,1,-1,-1,0,0,-1,-1,1,-1,1,3,-7,-2,-2,0,1,-1,-2,1,3,-2,1,-2,-1,0,-1,-5,-1,0,-1,-1,2,-1,0,-1,0,0,-2,0,-1,-4,-1,-1,2,1,-2,0,-1,0,0,0,-2,0,0,0,0,0,0,-1,-2,0,0,-2,1,-1,-1,-2,-1,-1,-1,-2,-3,-1,0,-1,0,-1,0,-2,1,-1,-2,-1,-1,-2,-1,0,-1,0,-2,0,0,1,-2,0,1
0,1,-2,-1,1,0,-3,0,-3,-1,1,-1,0,1,-1,0,0,-1,1,-2,-1,0,-2,-1,0,-1,0,0,-2,-2,0,-1,1,-2,0,-2,0,1,1,-1,-2,-1,0,-1,0,1,0,-1,-1,-1,-1,-2,-2,0,-1,1,-3,2,0,-1,-2,2,-2,-2,1,-1,-1,-2,0,-1,2,0,-2,-1,-2,1,-1,-2,-1,-1,-1,-2,-1,-3,0,-1,1,-1,-1,1,-3,-3,0,0,0,-2,-1,-1,0,-2,0,0,0,-2,-1,-1,-1,-1,-2,1,0,0,-2,-1,-1,-1,-2,-1,-1,1,-1,0,-1,-1,0,0,-2,0,0,0,-4,-1,0,-1,0,0,-1,-1,1,-4,-1,-1,0,0,1,-3,-2,-1,-2,-1,-2,-2,0,-3,0,-1,1,1,-1,-2,0,-1,-1,0,0,-1,-2,0,0,0,0,0,-1,1,-3,-3,0,-1,-3,-2,0,0,0,0,0,-2,0,-2,-2,-1,-1,-2,0,1,-1,0,0,-2,2,-2,0,0,-1,-2,-1,0,-2,-1,1,0,-1,1,-1,0,-2,1,0,-1,0,0,-1,-1,-2,-1,1,-1,-2,-2,-1,-1,-1,-1,0,1,-2,-1,-2,0,-1,0,1,-2,0,-1,-1,-1,-1,1,0,0,-1,0,-1,0,-1,-1,0,0,-1,-1,-1,0,0,-2,0,-3,0,1,1,0,0,-1,-2,1,-1,1,0,-2,0,-4,-1,1,-3,-1,-1,-1,-1,-2,0,-1,-1,0,-1,-1,-2,-1,1,-3,-1,-1,1,-1,-2,0,-1,1,-2,2,-1,0,-2,-2,-1,-1,-1,-2,0,1,-1,-2,1,0,-2,0,-2,0,2,0,-1,-1,-2,0,1,-2,-1,-1,-2,-1,-2,0,-2,-1,-2,-2,0,-2,1,-2,-1,-1,1,-2,0,0,-2,0,-1,-2,-1,0,0,-1,-3,1,0,-3,0,-1,-1,-2,-2,-1,0,0,0,-1,0,-1,-2,0,-1,0,0,-1,-2,0,-2,0,0,-2,-1,1,0,-1,0,0,0,-1,1,2,0,-2,-1,0,0,-3,-1,-2,-1,-1,1,-2,0,-1,0,1,-4,0,0,-3,-1,-1,-3,2,1,-1,-2,1,-1,0,-1,0,-1,-2,-2,-1,1,0,-2,0,-1,-2,-1,-2,-1,-2,-2,1,-1,-3,0,-1,-1,-2,-1,1,-1,-2,-1,-2,-1,-2,0,-2,-1,1,0,0,-2,-2,0,-1,-1,0,-1,-3,-1,-3,0,1,0,0,0,-1,-1,0,0,-1,1,-1,-1,0,-1,-2,-1,-1,1,-1,-2,1,0,-1,-2,1,0,0,-1,0,-1,0,0,0,-1,0,0,-2,0,-2,-2,0,-1,0,-2,0,0,-2,1,-1,-3,-1,-2,0,1,0,-1,0,0,-1,0,-1,0,-2,-1,-1,-2,0,2,-2,1,-3,-1,1,-2,0,1,-1,0,-1,0,0,-3,-2,0,-1,1,-1,-2,0,-3,0,-2,0,0,-1,1,0,0,-1,0,0,-1,-1,0,0,-3,-2,0,0,-1,0,0,-1,-1,0,-1,-2,0,1,0,0,-1,-2,0,-1,-1,-2,1,-1,1,0,-2,1,-2,1,-1,0,-1,-2,-1,-1,-2,-1,0,-2,-1,-2,0,0,-2,-2,0,0,-3,2,0,-2,-1,0,-2,0,-1,-3,3,0,0,1,-1,1,-1,-1,0,-2,-2,0,-1,0,0,-1,-1,-2,-1,0,-1,1,-1,-2,0,-2,-2,-1,0,0,-1,0,-2,1,-1,-2,1,-2,-1,0,-1,0,-1,-1,-1,-2,-1,0,-2,0,1,0,0,-2,1,-1,2,-3,-2,-1,-1,1,-2,-2,0,1,-2,-2,0,-1,0,-1,0,-1,-1,-2,-1,0,-2,1,1,-1,-1,0,-2,2,-1,-1,1,-2,-1,-1,-2,0,-1,-2,-2,-1,-2,-1,-2,0,-2,-1,1,-2,-2,1,-1,0,1,-3,0,-2,-1,-1,0,-2,-3,-1,-1,-1,-2,0,-1,0,-1,-2,0,-2,2,1,-4,-1,-1,0,-1,-1,-3,-2,-1,0,0,3,0,-1,-1,-3,0,1,-1,0,0,-2,-1,0,0,-1,1,-1,1,0,-1,0,-1,-2,-1,0,1,-3,0,1,-4,0,-3,-1,-2,-1,-1,1,-1,0,0,-1,0,-2,-1,0,1,-2,1,0,0,-2,-1,-1,0,-3,-2,1,-2,0,0,-3,-1,-2,-1,3,-1,-1,-1,0,-2,2,-1,-1,0,0,0,-1,1,-3,-3,-1,-1,-1,0,-1,0,-2,1,-1,1,-1,1,-1,0,-1,-1,-1,0,-2,-1,1,-2,1,-2,-2,-1,-1,-1,-1,0,-2,0,-2,-2,0,-1,1,0,-1,-2,-2,-1,-1,-1,0,-1,0,-2,1,-1,-2,1,0,-2,-4,-1,1,0,-1,0,1,-2,0,-2,0,1,-2,-1,-1,0,-1,-1,-1,-1,1,-2,-1,-2,-2,0,1,-1,-1,0,-1,-2,-2,0,0,1,-2,1,0,-1,-1,0,-3,-2,0,-2,0,-2,-2,-1,0,0,-1,-2,-1,-2,-2,1,-1,1,-2,0,0,-1,-1,0,-2,0,0,0,0,-2,0,-1,1,-2,-1,0,-2,-1,0,0,-1,0,-1,-1,0,0,0,-2,-1,-2,0,1,0,0,-1,0,0,-4,0,-1,0,-1,0,0,-2,0,-3,-1,-2,-2,0,-1,-2,-1,-1,-1,0,-2,0,-1,-1,-2,-1,0,-2,-3,-1,0,0,-1,-2,-1,0,-3,-2,1,-1,0,-1,0,-1,-1,1,-1,0,-1,-1,-1,0,-1,0,-2,-2,-3,-1,1,-2,-1,-2,-1,0,0,1,-1,-2,-2,-1,0,2,-2,-3,-1,0,-1,-1,-3,-1,0,-1,0,-1,-1,0,1,1,-1,-1,-1,0,-1,0,0,-1,-1,-1,-1,1,-2,-2,0,-1,-2,-1,1,-2,-1,0,-1,-1,0,-1,2,-2,-1,-1,-3,0,-2,-1,0,-1,-2,0,0,-1,-1,0,-2,0,-2,-1,0,-1,1,0,-1,-2,1,-2,0,-1,-1,-1,-1,-1,0,0,0,0,-2,0,1,-1,0,-2,-1,-1,-1,-1,-2,0,0,2,-1,-1,0,0,-1,-2,0,-1,-1,-3,-2,-1,1,1,-1,-1,-1,-2,0,1,0,-2,0,-1,-1,0,-2,-1,-1,-1,-2,-1,0,-3,2,-4,-1,0,-1,1,0,-2,-2,-1,-2,-1,0,0,1,-1,-2,1,0,0,0,0,-2,-1,1,0,-2,-1,-1,0,0,0,-2,-1,-1,-1,-3,0,0,-1,0,-1,-1,-1,-1,1,-1,-1,-1,0,-1,-1,0,1,0,-1,0,-1,-1,-1,-2,0,0,-3,-1,-1,0,0,-2,-2,0,-4,0,0,-1,0,-1,0,-1,0,-1,0,0,-2,-1,1,-1,0,-1,-1,1,0,0,1,-1,-1,-2,0,-1,-2,-2,-1,0,-1,0,-1,0,0,-1,-1,-1,-1,0,0,-1,-1,0,0,0,0,0,-3,-1,0,0,-1,-2,-1,-1,-1,-1,0,-1,-1,0,-2,-2,1,-1,-3,0,1,-1,-1,-3,0,1,-1,-1,1,-2,-1,-1,-1,-1,-2,0,0,-2,-1,-1,-2,0,0,0,-1,-2,-1,0,-1,-1,0,0,-1,-2,-1,0,0,-2,-2,-1,2,0,-1,1,0,1,-1,0,-1,0,0,0,0,-2,-1,-3,-2,-2,0,2,-2,-1,-1,0,-1,0,1,1,-1,-3,-3,0,-3,0,-2,1,1,-1,0,-1,1,-1,-1,0,-2,-1,0,1,-3,-2,-2,-2,1,-1,-1,-1,-3,-2,1,1,2,-1,-3,-1,0,0,1,-3,-1,-1,-1,-2,-1,-1,0,1,0,-1,-2,0,0,-2,0,0,0,-1,-1,-1,0,-2,-1,0,-2,-1,-2,1,-2,-2,-1,2,-1,2,-1,-1,-1,-1,0,-1,-2,-2,-2,-1,-1,-3,0,-1,1,-1,1,0,-1,-2,-1,-1,-2,0,-3,-1,-2,-1,-4,0,0,-1,1,0,-1,-1,0,0,0,0,0,0,-1,-1,1,-2,0,-1,0,-1,0,-2,0,-1,0,-1,-1,0,0,-1,0,0,0,-1,-2,-1,-2,0,1,-2,-1,-3,-1,0,0,0,1,-2,1,1,0,1,-2,-3,0,0,-1,1,-1,-2,0,-1,-2,0,0,-2,-2,-1,-1,4
0,-1,-1,-1,1,-2,0,0,-2,-1,1,0,0,-1,0,-1,-2,-1,1,-1,0,0,-2,-1,0,0,-2,-2,-1,-1,0,-2,-1,0,-1,-1,-2,-2,0,-2,-2,-1,1,0,0,-1,-1,0,0,1,-2,-3,-2,0,0,-1,-1,-1,-1,0,1,0,-1,1,-2,0,-1,-1,-1,-1,-1,-1,-1,-1,-1,-2,-2,-2,-1,1,1,-1,-1,-1,-1,0,0,-1,-2,0,-2,-4,0,-1,0,-1,-2,-1,-3,0,0,-1,-2,-1,-3,-2,0,0,1,1,-2,-1,-1,-2,-1,-1,-1,-1,-2,-1,0,-1,-1,0,-2,-1,-1,-1,0,-1,0,-1,-1,-1,0,-1,0,2,-2,0,0,-1,-1,0,-2,0,1,0,0,-2,1,-1,0,-2,1,-1,-1,-1,-1,0,-2,-1,1,-1,0,-1,-1,-2,-1,-1,-2,1,-1,0,0,0,-1,-2,0,-2,-1,-1,-2,0,-2,-1,0,0,-2,0,-2,-1,1,-1,-1,-1,-1,0,-2,1,-1,-1,-1,-1,0,-1,0,-2,-1,-1,-1,-1,-1,1,1,-1,-1,-2,0,-1,0,0,1,-2,1,0,-2,2,-2,-1,-2,-1,0,1,-3,-2,-3,-21,22,-8,5,9,-21,11,0,-5,0,5,-9,11,-3,-2,-6,-1,3,-2,9,-3,-1,0,1,1,0,-1,-2,3,-4,-1,-4,-1,2,-4,12,-15,-1,0,-9,-3,-3,-3,4,0,2,-1,-4,6,-3,-2,-8,-4,9,-1,-9,14,1,-16,10,-7,0,9,3,-10,-4,-1,-12,-16,5,-16,5,10,-7,8,-23,10,18,1,18,-13,-11,-8,1,8,-7,5,0,11,-3,-1,-3,6,-4,16,7,-3,-4,-5,0,-5,-14,17,-7,6,6,-7,-3,9,3,-16,12,-5,5,0,-8,-6,7,-1,10,-2,-3,4,-6,14,-13,-8,2,-6,-6,2,-2,-9,0,-3,11,-17,5,7,0,15,-12,-2,-19,-14,14,5,3,-9,-2,5,-11,5,0,-3,0,0,0,-11,19,-4,-13,0,4,10,-8,-1,-8,1,-6,4,-1,-2,8,-20,-6,-4,17,-13,2,0,3,-6,2,-2,-4,10,-9,16,-9,-2,-14,-6,-1,12,3,-4,7,6,-4,-12,12,-14,6,4,-6,-8,6,11,-2,8,-14,-3,4,14,-2,0,10,-32,-4,13,5,2,14,-27,-6,1,-1,9,-12,4,0,3,-15,9,14,-12,-16,6,-3,1,5,3,1,-3,2,4,-3,-1,8,1,-18,3,-16,2,0,-16,9,-4,1,-4,13,-7,10,1,-3,15,-9,10,-14,-3,-2,10,-13,-3,5,-18,6,-9,10,-2,9,8,-11,4,1,-9,-8,9,0,7,-4,-13,13,8,-4,10,-18,7,-10,4,6,1,2,-5,-7,-8,7,3,7,-2,5,-14,8,-13,22,-16,-14,-7,2,9,-8,-6,3,-3,5,-4,2,19,-29,-2,-9,2,12,3,-11,8,0,-1,-3,-20,11,-4,19,-4,-11,0,-8,7,12,-2,-8,-2,-4,1,-1,3,-15,10,0,0,4,4,-2,-24,1,3,5,10,1,3,-11,10,-4,7,1,-9,12,-7,1,-8,0,-3,2,2,-2,-16,1,19,-24,2,-1,-3,9,-5,-5,5,0,2,-2,-8,-2,12,-1,5,-6,5,2,-2,3,-7,-1,1,-11,-3,3,3,-20,-7,0,14,2,8,-3,1,5,-10,-5,-10,8,-4,1,-12,11,-1,-4,-5,4,14,-23,-10,-3,-6,11,3,-7,1,-8,-4,2,-4,3,4,-4,-1,-5,7,0,-7,0,6,-4,-8,-1,13,-9,-3,4,7,4,5,-6,4,3,-2,4,-16,4,-7,10,-7,-1,7,-3,-9,12,-1,-28,3,-3,2,17,-7,5,1,-2,1,-1,-7,11,3,1,-11,2,-7,7,0,6,-3,-7,14,-13,7,-5,-6,14,3,-9,6,-8,-9,6,2,-5,2,-2,0,-6,4,-6,7,4,4,-8,4,2,-5,2,-4,1,-5,-2,1,1,-1,3,-7,0,-5,5,-3,-6,11,1,-3,0,0,-6,12,-1,4,-10,-3,10,1,1,-22,10,-6,8,-1,-9,0,3,3,-5,-7,1,2,-1,6,-5,-12,-10,1,-3,7,-3,-9,2,-3,-2,2,5,4,-2,-24,27,-13,5,-1,-6,-2,9,0,-12,-5,-4,12,-13,9,7,-8,1,-7,2,3,-3,3,5,2,-9,-1,-6,-7,-1,10,-16,6,1,-21,-1,4,1,6,5,0,0,4,-12,-2,18,-10,3,-8,2,3,8,0,5,-1,-11,4,6,-16,1,4,-20,-7,18,3,-9,6,-16,5,-10,13,5,-1,-3,4,1,-7,-11,14,5,-8,2,-17,-10,4,5,2,-1,-2,0,-3,-5,0,8,-8,1,-2,0,14,-7,0,4,2,2,-3,-2,4,-2,0,-1,-5,3,0,1,-7,2,-3,-2,5,-7,-1,-6,-7,9,-2,-3,4,-5,7,3,-8,-2,0,-1,-10,0,-7,1,-11,7,2,7,4,-7,-5,-2,5,1,3,-1,-5,2,-13,-2,14,-9,13,3,-3,-6,-7,6,14,-14,2,-18,0,10,1,-3,7,-4,-4,-5,-6,4,-1,0,3,-6,-3,-4,-8,2,6,-2,3,-4,3,-8,3,3,0,8,1,-3,8,-10,0,3,-1,1,-3,-2,-1,5,-7,-1,8,1,-14,-8,-8,2,21,-6,-5,-3,-4,7,-10,5,-2,11,-9,1,2,1,12,-4,-5,1,0,-3,-2,-6,4,-6,-3,-2,1,2,8,-17,-7,9,-11,1,0,1,-4,6,0,-3,-2,-4,9,-1,1,4,3,-2,-5,7,3,-6,-1,-2,-7,1,-8,0,-5,19,-21,7,-2,-11,-6,3,-1,8,1,-2,-2,-6,-2,5,3,-3,0,11,-15,-2,7,-2,1,3,11,-11,1,-4,4,-4,-3,-2,9,-10,-4,-11,-2,2,-2,2,-9,-2,-1,4,4,-5,0,-3,4,-3,4,-2,1,5,8,1,-3,3,-4,-4,-2,5,-4,1,-3,-11,14,1,-12,1,-9,4,8,-8,-2,2,-2,-10,-1,-5,-1,6,0,-27,15,9,0,4,-14,7,-6,1,1,0,-4,6,1,-4,-6,2,2,-2,7,1,-8,-1,-2,5,-2,-17,26,-4,-12,8,-5,-1,-1,-4,12,-20,-3,6,-3,0,2,-1,-9,3,2,10,-11,1,6,-3,-6,2,4,-3,-7,5,-1,-1,-1,0,-1,-3,-2,1,-3,0,-4,0,2,-2,-1,1,1,1,-2,2,0,1,0,-1,-1,-1,-2,-2,1,-1,-2,-1,0,-3,1,0,-2,-1,0,-1,-2,0,0,0,1,-1,0,-1,0,1,0,-2,-1,-1,-1,-1,-3,-1,-2,-1,-2,0,-1,1,0,-3,-1,-2,1,0,1,0,-1,0,-2,0,0,1,-1,-1,0,-2,-1,-1,-1,-1,-1,1,-1,0,-1,-1,-1,0,0,0,1,1,0,-2,-2,-1,-2,0,-2,-1,0,-1,0,-1,0,0,-2,-3,1,-1,-1,-1,-2,-1,-1,-1,0,0,-1,0,1,0,-1,-1,0,0,-1,0,0,-1,-2,-2,-1,-1,-1,-1,-2,-1,-2,0,0,0,-1,0,0,0,0,-1,0,-1,-1,-1,-1,1,0,-1,1,-1,-1,-1,-2,-1,1,-1,-2,-2,-2,1,1,-1,0,-2,0,-2,1,-1,-1,-2,-1,-1,-1,0,-3,0,-2,0,0,0,-1,-1,0,-1,0,-1,-1,-2,-2,1,-1,0,-1,0,-1,0,0,-1,-1,-1,0,-1,-1,0,-1,-1,-1,1,-2,0,-1,0,0,-2,-2,-1,-1,0,0,0,0,-1,-1,-1,-2,-1,0,0,0,1,-1,1,-1,-2,-2,-2,-1,-2,-1,-1,0,0,-1,-3,-1,-2,0,1,-1,-1,-1,-2,0,0,0,-2,0,0,0,0,-1,-1,0,2,0,-1,-1,0,-1,-1,-1,-2,1,-2,-1,0,0,-1,-1,-1,-2,0,0,-1,-1,-1,-1,-1,-1,1,1,-1,-1,-2,-1,0,0,-2,-1,0,0,1,0,-2,0,-1,1,-1,-1,-1,-1,-1,-1,-1,-1,-1,-1,0,-1,-2,0,-2,0,-1,-2,-1,-2,0,0,-2,-2,-1,0,-1,0,0,-1,0,0,3
0,0,-1,-1,-2,-1,-1,0,1,-1,-1,-2,-2,-1,-1,-1,-1,-2,0,0,-1,-1,0,-1,0,-1,-2,-1,-2,-1,-1,-1,1,-2,-1,0,-2,0,0,-1,0,-2,-1,1,0,0,-1,-1,0,-1,-1,0,-2,-1,0,-2,-1,-2,0,0,1,-1,0,-1,-1,-1,0,-2,-1,-1,-1,-1,-1,-1,0,0,0,-1,-1,-2,0,-1,-1,0,0,1,-2,0,-2,0,0,-2,-2,0,0,0,1,-1,-2,0,-1,0,0,0,-1,-1,0,0,1,-1,0,-2,-1,-2,0,-1,-1,0,-2,0,-1,-2,1,-1,0,-1,-3,-1,-1,-1,-1,1,-1,-2,-1,-1,0,0,-1,-2,0,0,-1,-1,-1,0,-1,1,-1,-1,-1,0,-1,0,-1,-2,1,-1,0,0,-3,0,-1,-2,0,-1,-1,-1,0,0,1,-1,0,-1,0,-1,-2,-1,-1,-1,-2,1,0,0,-1,-1,-1,-1,0,-2,0,-1,-1,-2,-3,-2,2,-1,-1,0,0,0,0,0,-1,-1,-2,0,-2,0,0,0,-2,0,-1,0,-2,-2,-1,-1,-1,-2,-1,-1,-1,-2,0,-1,0,0,-2,-3,0,-1,-1,0,-2,-2,1,0,-1,-1,0,-2,1,0,-3,-1,-2,-1,0,0,0,1,-2,-1,-1,-1,-1,-2,1,0,-1,-1,-2,-2,0,-2,1,1,-2,0,0,-2,-1,0,0,-2,-1,-1,-1,-1,-1,0,-1,1,0,0,-3,-1,0,-1,1,-1,0,-2,-2,0,-1,-1,-1,-2,-1,-1,0,-2,0,-1,-1,-1,0,1,0,-1,-2,1,-3,0,1,0,0,-2,-2,0,-1,0,2,-2,-1,1,-2,0,0,-1,-1,-2,0,-2,0,0,-1,1,0,-2,-2,1,0,-1,-1,0,-2,-2,0,-3,1,0,0,0,-2,0,-1,-3,-2,-1,0,0,-1,0,-1,-1,-1,0,-2,-1,0,-1,0,0,-1,0,0,-1,0,-1,1,-2,0,-2,-2,-1,-1,-1,-2,1,0,-1,-3,-1,1,-1,0,0,-1,0,-1,1,-2,-1,-1,0,-1,-1,-2,0,-1,0,1,-2,-2,1,-1,0,0,-1,-1,2,21,-28,2,38,0,-54,-7,28,-32,22,5,-2,38,49,-59,-21,-25,9,28,-12,-12,-1,57,-87,30,-52,-11,17,-36,44,-7,111,-33,-28,-13,19,-2,32,5,-38,2,-9,18,16,9,-30,21,-46,46,3,-18,5,11,2,-51,83,-17,9,-3,-13,-18,-8,-5,-45,-33,-9,5,37,-55,41,27,-10,1,5,5,-45,58,-51,22,8,12,7,-53,3,18,24,-23,35,-66,-2,4,-8,-15,38,29,-43,-2,19,-42,31,-29,-93,65,-50,51,43,-34,-10,38,9,-18,-11,-2,-23,23,-60,59,-1,86,-60,-17,23,17,22,-8,-16,-11,18,-24,6,-44,58,27,9,-39,33,-28,1,12,-96,-9,-13,-4,44,4,-15,-12,14,5,-3,4,11,-88,47,-21,35,-17,-25,12,-10,20,-3,23,-15,-2,7,-26,22,-18,31,-28,15,37,-60,-8,50,1,29,-47,-33,24,-7,14,-14,8,-5,34,-24,-2,31,22,-44,-68,17,5,-14,31,-9,2,-11,22,-5,-19,2,11,9,20,-5,-4,-25,4,80,5,2,-22,-14,-20,-4,5,-4,14,-16,-20,13,-10,26,-1,11,-32,-8,-3,-55,25,13,49,-25,17,-30,14,-6,-1,12,-18,7,-10,43,-103,2,32,7,28,27,-71,-32,39,-15,35,3,-2,-18,7,-32,18,26,17,-23,26,-30,23,28,-12,-15,18,-14,32,-13,-15,29,-28,22,8,-20,-3,17,5,-8,7,-9,2,-6,33,-37,-41,12,15,7,-18,25,-1,-1,-31,-3,-21,15,12,9,14,-70,75,-6,-7,-57,44,-38,1,24,-64,16,-23,23,18,7,-28,32,13,-21,11,-3,-18,36,-38,-6,19,15,23,48,-26,-18,9,20,11,-8,-11,17,-39,-6,-2,22,54,-76,-49,73,-36,16,18,-40,15,0,-19,0,2,8,15,42,-40,-3,21,-22,-24,-25,10,-24,20,5,1,-44,21,26,0,-6,-1,11,41,-87,-10,44,-43,64,-82,-12,1,2,21,-5,1,35,-9,5,13,-13,57,-6,-88,14,-15,-7,-1,-16,5,12,-26,8,65,8,34,-36,-9,-19,-18,59,36,-36,20,0,-43,-28,32,-4,-4,-8,12,5,-8,-4,26,-6,-10,11,41,19,-94,18,14,10,45,-56,-24,-8,25,-13,-1,-2,10,21,-8,-38,8,6,-1,-100,25,2,-1,-30,-3,-3,-4,31,-12,32,-19,-4,14,-3,2,38,8,35,-41,-4,3,66,-12,-34,22,-64,5,12,-7,-2,16,1,-10,-2,-1,23,-51,65,35,-7,-6,-19,-54,110,0,-39,26,-42,17,8,-10,-14,-16,-31,41,5,6,-8,-9,-70,-6,6,-37,25,11,-60,35,29,-4,7,-14,29,14,12,-42,18,-7,41,21,-58,-1,17,10,27,-41,-10,19,-43,58,28,-26,-2,-12,-10,-10,40,-7,-10,28,5,3,3,-20,-3,4,-33,14,-15,11,-3,0,-10,-11,-7,1,2,-32,1,52,-74,-2,-10,57,38,18,-15,-38,21,5,-20,-22,-1,-13,25,-18,-1,7,20,16,-33,-12,1,-33,6,42,-9,-27,81,-29,3,-4,-27,17,11,-6,6,-9,-35,75,56,-83,61,-10,11,-17,1,-2,-16,9,-20,-16,-7,-4,11,-11,-51,41,-3,1,-21,-70,25,-31,35,17,-54,14,-18,28,74,2,-24,1,-7,-5,2,-14,7,38,18,-1,-51,24,-21,-5,5,-13,17,22,-37,16,22,-17,-3,-11,-20,-11,31,-11,4,-28,9,-27,-13,26,56,-52,19,7,-30,-7,13,-10,-33,43,-8,57,-5,-10,-8,17,26,4,6,-31,9,-3,12,-15,-18,-34,-24,14,-15,4,45,-10,-30,25,-12,-4,-48,-24,8,12,17,-3,-15,15,-5,5,3,17,-4,-5,-16,-22,99,3,10,-40,-26,26,11,25,1,-11,-14,8,-28,4,-11,-18,10,7,61,-51,13,27,34,-6,-7,9,-32,24,8,-13,-31,6,-16,-35,-14,58,-22,8,32,-19,20,-2,-27,9,-17,19,-5,6,-1,-12,-12,-20,33,0,-32,17,11,-28,70,-63,1,-13,-25,35,-13,6,-13,7,-2,8,14,-46,56,37,-63,6,-11,23,-26,28,-11,-7,-11,13,-3,-7,6,30,-35,-57,63,64,-91,-16,47,-6,29,8,-37,10,3,0,16,-24,3,3,-1,-24,15,59,4,-11,-16,-55,64,-61,11,-1,-8,16,-7,-13,-1,9,-1,17,-34,-33,35,13,0,-75,100,18,-6,32,8,6,-14,20,-66,-2,-30,11,-12,50,-21,10,2,-6,20,-46,-13,20,10,61,25,-31,-20,1,-32,26,-7,-11,2,-29,-14,39,-36,27,36,-23,16,4,36,19,-9,-24,-17,4,-14,11,-6,-10,3,-18,14,0,13,16,-26,52,33,-15,54,-18,15,-23,-36,-6,-5,-25,-16,4,-43,64,-20,14,12,-16,11,-4,-10,11,37,20,6,19,-32,-18,36,-23,-19,-5,0,-43,41,-34,-2,-79,-23,57,0,57,-77,-47,47,-9,4,17,-24,-9,13,-49,-12,27,-32,42,-14,-30,25,5,-4,-12,-4,9,-33,62,1,-3,-11,-31,22,-36,52,-1,19,2,-29,12,-45,36,9,17,-67,58,6,-62,29,-11,-14,43,-23,-32,-19,6,9,25,-76,-26,47,18,14,7,-11,-11,-7,6,50,-17,39,-37,-31,45,-1,57,-4,-62,42,-20,8,-15,13,-21,3,-12,-29,-2,41,-75,5,21,23,-12,-57,47,16,64,0,-18,-41,20,11,-7,0,-3,3,1,-3,26,-26,19,-7,26,-13,-36,9,-8,26,-11,-2,-22,2,-4,5,-16,8,12,-13,-12,15,-6,-6,-2,10,2,-8,-2,4,-4,-2,-3,-5,1,-4,-4,1,-2,-1,-3,6,-1,-1,-2,8,-3,-1,-4,2,2,1,-5,-2,-1,-1,1,0,-1,-2,1,1,-1,-2,1,-2,-1,-1,-1,0,-1,-4,-1,0,-2,1,0,0,0,2,-3,-2,-1,-1,0,-3,0,0,-2,-1,-1,-1,1,1,-1,0,0,0,1
-1,-3,0,0,-1,0,-2,1,-2,0,0,1,-2,0,-1,-2,-2,-1,-1,-3,0,-1,-1,0,-1,0,-1,-1,0,-1,-1,-1,-1,-1,0,0,-2,-2,-1,1,-1,-2,0,1,-1,0,-1,-2,1,-2,-1,-2,-1,-1,0,-1,-1,0,0,-1,-3,0,0,-2,-2,-1,0,0,-3,-1,1,1,0,-2,0,0,-3,0,-1,0,-1,-1,1,-1,-1,1,1,0,-2,0,-3,-1,-1,-1,1,-1,-2,0,-1,-1,-1,1,0,1,-2,-1,2,-2,-2,-1,0,0,-1,-1,0,-1,-3,-2,-1,-1,-2,-2,-1,-1,0,0,-2,0,-2,-1,0,0,-1,-1,0,-2,-2,0,-1,-1,0,0,1,1,-3,0,0,1,-1,0,0,-1,-3,0,-1,-1,-2,-1,1,0,-1,-2,-1,-2,0,0,-1,0,-3,-1,0,0,-3,0,1,-1,-3,1,1,-1,-1,-2,0,1,-2,1,-1,0,-1,-1,-1,1,-3,-2,-1,-1,-1,-1,1,-2,-2,-2,0,0,-2,0,-1,0,-2,1,-1,2,-1,-2,-1,1,-2,0,-1,-1,0,-2,0,0,-2,-2,0,0,-2,-2,0,-1,-1,-1,-1,1,-1,0,-1,-3,-2,-1,0,-1,-1,-1,0,0,-2,0,0,-4,0,-1,1,2,0,-1,-2,-1,-1,-1,-1,0,-3,-2,-2,1,0,2,0,0,-4,0,1,0,-1,-1,0,0,-2,-1,-1,-1,0,-1,0,-2,-1,1,1,-2,0,-1,1,-1,-1,-3,0,0,-1,0,0,0,-1,1,-2,-1,-2,-1,-3,-1,0,2,0,-1,-3,0,-1,-1,-1,0,0,-2,-1,-1,0,-2,0,-1,-2,0,-1,1,-1,-3,0,0,-1,-1,-1,0,0,0,-4,-2,0,-2,1,-1,1,-3,-2,0,-2,-2,-1,1,-2,-1,-1,0,0,-3,0,-1,0,-1,-3,1,-1,-2,1,0,-1,-2,-1,-1,0,-3,-1,-1,-1,-3,1,0,-1,-1,0,0,0,-1,0,2,-1,-3,-2,-2,-1,-2,0,-1,-1,-2,1,0,2,-2,0,0,-1,-2,2,-1,-3,-3,-2,1,-1,-2,0,-2,-6,5,0,5,10,-42,0,-10,7,37,-28,50,7,-10,25,-4,-16,95,-26,35,0,-10,28,-12,-19,0,-15,-17,1,-31,-3,3,2,-11,0,1,-18,-10,-5,11,1,35,-46,-22,6,50,-17,-38,2,-32,70,-20,19,-13,-5,-6,10,-11,-17,41,-6,-3,8,-25,20,-43,13,7,-8,1,16,7,-40,29,-3,-3,17,34,-44,-14,-7,15,-60,12,-11,-11,38,0,31,35,-57,-6,21,-32,31,5,-4,-30,33,1,-3,-18,7,9,-9,-4,-5,40,-32,-38,-2,13,-17,2,-11,-7,48,-43,9,-13,16,13,22,-9,-11,6,24,-40,19,5,-1,22,51,-49,16,7,-12,43,-7,-21,-16,7,2,-1,3,-39,8,20,-10,21,-23,-33,23,-2,8,-10,-14,15,-27,11,-13,-9,5,-2,-12,-46,-11,95,-49,15,-26,-9,-2,11,10,23,-55,4,14,-20,21,-4,9,5,-9,-3,40,-105,93,2,-23,2,-17,25,8,15,-79,7,-16,4,29,-1,-15,12,-2,-16,47,-13,-45,8,-4,12,38,-43,12,-20,12,9,-9,1,31,-34,-3,-17,15,-17,19,-23,-9,47,-26,29,-23,8,19,-17,12,-4,-12,6,26,-31,15,-47,15,6,0,-1,-7,15,-37,16,-4,4,12,1,-23,15,-11,19,-15,-3,33,-6,-18,-10,-20,62,-103,40,-40,-8,9,-8,11,-12,30,-2,-18,19,-2,3,12,-25,1,43,-61,19,73,-58,2,1,39,-19,12,-26,12,-11,14,4,14,-42,5,-15,-19,27,22,2,-28,17,11,25,-60,2,-17,4,23,1,7,59,-72,4,-2,-11,19,-14,27,-7,8,-11,-2,-16,0,13,-13,-9,-34,18,-10,-13,9,33,10,6,9,8,-25,-13,1,5,6,11,24,-12,16,9,-23,-10,9,21,-34,18,-46,-19,25,13,-29,33,9,-28,15,-28,35,3,-21,-4,-16,15,27,-2,-7,-43,-12,10,-24,58,24,-19,7,-30,17,-9,-7,30,-11,-16,-14,45,-3,-29,6,-43,-6,50,-7,8,0,11,5,-32,63,-77,4,11,-24,-9,29,-15,12,57,-68,-3,-25,63,1,-10,-2,-42,33,-17,8,2,-2,3,21,-37,-32,21,-12,2,23,-62,93,-46,10,-26,-18,23,16,5,-42,46,-12,77,-60,-23,13,9,-20,-9,-35,24,55,-56,14,-24,-2,61,-9,-61,52,-71,30,-29,2,13,25,-20,46,-52,-12,-9,-7,32,-6,32,-50,-2,20,-6,32,4,1,37,-47,-76,65,12,-15,34,-21,-11,20,13,-9,9,-16,33,-23,15,-3,-42,-2,-4,18,-5,7,-20,-16,57,-13,-25,-21,-10,13,27,-8,7,-14,32,-17,7,-9,-15,30,-34,60,-43,50,-38,-53,14,15,-20,3,-11,-60,51,-19,-9,22,25,-21,74,-83,48,-8,8,42,-103,60,-12,-1,18,24,-40,-37,27,-22,17,0,9,6,-24,-15,6,-3,-3,31,10,-23,6,-6,-2,-6,6,-24,8,-10,6,50,-47,-11,7,8,3,21,-2,30,-54,5,-7,22,11,-55,72,-40,18,-7,-6,-4,0,4,-16,-12,8,-7,40,-64,22,-9,-24,12,76,-19,-89,32,16,11,-43,63,-24,33,-9,-43,13,-10,20,14,-5,-14,26,25,-62,19,-16,0,8,-44,113,-93,-30,5,-12,18,34,-17,-32,22,-9,34,-39,15,11,-2,29,-11,-38,3,-18,11,-23,-16,5,-10,16,13,-41,7,13,45,-66,58,-87,-48,64,-18,41,-39,-18,-18,25,14,2,2,-32,60,16,49,-42,15,9,-46,17,-1,6,-21,87,-33,-63,52,-109,19,110,-100,5,13,0,10,43,-42,0,16,-13,16,-27,-15,59,-42,44,-72,49,12,-25,3,-58,75,-5,-9,-14,-79,15,22,-5,51,-32,45,-57,18,9,-21,52,-48,-2,-40,-9,-2,53,-57,83,-58,37,-14,-8,41,-12,5,-8,23,-7,5,10,-46,27,19,17,-7,-23,-4,48,-13,-70,1,-13,8,-7,38,-60,37,-8,-2,-18,32,-9,23,-31,23,-7,41,-34,43,-1,-11,10,-23,11,-30,26,-12,-36,11,18,-8,45,-26,-30,51,11,-34,65,-86,32,34,-22,-9,-19,23,8,-83,2,-2,5,3,27,21,3,-36,9,-15,-33,56,19,-29,10,-66,-12,17,-20,91,-62,14,-15,30,-21,4,3,8,-14,7,-17,-11,8,50,-15,54,-9,-14,12,-11,-14,-3,108,-102,32,-79,19,21,-2,-21,16,18,-17,26,-44,15,-16,55,-25,1,32,-36,-39,27,53,-69,7,-3,17,-3,8,7,-80,16,26,18,-72,50,-62,28,18,49,-18,-60,11,-15,21,-18,13,-32,-4,100,-97,61,12,27,4,-28,20,-20,31,5,-47,-26,32,-46,40,-2,3,43,49,-112,0,25,-33,29,6,-28,21,6,-23,-10,2,12,31,26,-64,22,-25,1,45,-42,27,-70,54,-38,21,-35,-17,23,-6,26,-18,-15,38,9,-20,-3,6,-7,-11,25,-8,6,-15,11,-5,-9,-1,2,-5,4,-4,6,-2,1,-5,-2,-1,0,0,5,-3,0,0,6,-3,-4,-2,2,-2,0,-4,1,-2,0,-2,0,-1,-3,-2,-2,-1,-1,1,0,-2,-1,1,1,-3,1,-1,1,-2,-1,1,-1,-3,1,-1,0,-4,0,0,0,-2,-1,-1,0,-2,-1,-1,-2,-1,-1,0,0,-3,-2,-2,0,-1,0,1,0,-2,2,1,-1,-1,-1,1,0,-2,0,-1,0,-1,-1,-1,1,-1,1,0,-1,-1,-1,1,-1,-2,0,-1,0,-2,-1,-2,0,-2,0,1,-1,-2,0,0,-1,-1,-1,0,-1,-2,-2,0,-1,-2,0,-1,1,-2,0,0,1,-2,0,0,-1,-1,-1,2,0,-2,-1,1,-2,-1,0,-1,1,-1,-1,-1,0,-2,0,0,1,-3,0,0,-1,0,-1,1,1,-2,-2,0,-2,-1,-1,-1,-1,-1,0,-1,1,-1,-2,2,1,0,-1,0,0,-1,-1,-1,1,-3,0
-2,0,-2,0,-2,1,0,-2,-1,-1,-1,0,-2,-1,0,1,-1,-2,-1,0,1,0,0,-2,-2,0,1,-1,-1,-1,-1,0,-1,-1,1,-3,-1,0,-2,0,-2,-2,-1,0,-1,0,-1,-2,-1,-1,0,-2,-1,1,-1,0,-1,-2,0,-1,-2,1,-2,-2,-1,1,-1,0,-2,-1,0,-1,-1,1,-1,-2,0,-1,0,-1,-1,-1,-1,-1,-2,2,-1,-1,-1,-1,-1,-2,-2,-1,0,-2,0,-2,-1,-3,3,1,0,-2,-1,1,-1,-2,-2,0,-1,-1,0,1,1,-2,-2,0,-1,-1,1,-1,-2,-4,0,1,-1,-2,0,1,0,-1,-1,1,-1,-2,-2,-1,-1,-3,-1,-2,-1,-2,-1,0,0,-2,0,-2,0,-1,0,0,1,-3,0,2,0,-2,-1,-1,-1,-2,1,0,-1,-1,0,0,-1,-3,-1,0,2,-1,0,0,-1,0,-1,2,0,-2,-1,0,-2,-2,-1,-2,0,-3,0,-2,1,-2,-1,1,-1,-1,-1,-1,-1,-3,-1,0,1,0,-1,-1,0,-3,1,0,-1,-1,-1,0,0,-1,-1,0,0,-1,-1,-1,1,-2,-1,0,0,-2,-1,2,-1,-1,-2,-1,-1,-2,-2,2,0,-1,-2,0,1,-2,-1,1,-1,-2,0,-3,0,-1,-1,0,0,-1,-1,-1,-1,0,0,1,1,-3,-1,0,-1,-3,-1,-1,0,-2,0,0,-1,-1,1,0,-1,-2,-1,0,0,1,0,-1,-1,-2,-1,-2,-1,-1,0,-1,-1,-2,-1,0,-1,0,1,-1,-3,-1,-1,1,-2,-1,-1,-2,-1,0,0,-1,-1,-3,2,-2,-1,0,1,-2,-1,-1,-1,-1,-2,-1,-1,-1,-1,-1,-1,-1,-1,0,0,-1,0,-1,-1,1,-2,0,-1,-1,-4,0,0,0,-2,0,2,-1,-3,-2,2,0,-1,-1,-1,-1,-2,0,0,-2,-2,1,-1,2,-2,0,0,0,-1,0,0,-1,-3,0,0,-1,-3,-1,1,-1,-3,-1,1,1,1,-1,-1,-2,-2,1,1,0,-2,-1,1,0,-1,0,-1,2,-3,-1,0,0,-3,-1,0,0,-2,-1,0,-1,-2,0,0,-1,-1,-1,-1,-1,-2,-2,-1,-1,-1,1,-1,-1,0,-1,1,-2,-2,0,0,-1,-2,-1,-2,0,-3,0,2,-1,-2,-1,-1,0,-2,-1,1,1,-2,0,-2,2,-2,-1,-1,0,-3,-1,0,0,-3,0,-1,-1,0,-1,-1,1,-3,-3,1,0,-1,-1,-1,1,-3,0,2,-1,-2,-1,-1,-3,0,-1,0,1,-2,-1,0,0,-1,0,-1,0,-2,1,-1,0,-1,-1,0,0,-1,0,2,-1,0,0,-1,-2,0,-3,-1,-2,-3,-1,0,-1,-2,-2,-2,1,-2,1,-2,-1,0,-1,0,1,-2,-2,0,-1,0,0,-1,-2,-1,0,-1,-2,-2,0,1,0,-1,-1,-1,-2,-1,0,-2,-1,-1,-1,-1,-4,0,0,-1,-1,-2,1,-1,-3,-1,0,-1,-1,-1,1,-1,-2,-2,-1,0,-2,0,0,0,-3,-1,-1,-1,-2,0,0,0,-3,-1,0,-2,-2,-1,0,-1,-2,0,-1,0,-2,-4,-1,2,-3,1,1,-2,-3,-1,0,1,-1,-1,1,-3,-2,1,0,-2,-2,1,0,-1,-2,0,-1,1,-2,0,1,0,-2,-2,0,1,0,-1,0,0,-2,2,1,0,-2,0,-1,-2,-2,0,1,-1,-2,0,0,1,-2,-1,1,2,-1,-1,-1,0,-1,0,0,-1,-3,-3,0,0,-1,0,-1,-1,-1,0,1,0,-2,-1,1,0,-2,-1,-1,0,-1,-1,-2,1,-2,-2,0,-1,-1,0,-1,0,-1,-1,0,-1,-1,0,0,-1,-3,-2,0,-2,-1,-3,-1,0,0,-1,0,0,-1,0,0,0,-1,0,1,-1,-2,-1,-1,0,-1,-1,-2,1,-1,-1,1,-2,-2,0,1,0,0,-2,1,1,-1,11,-19,36,-16,-76,-13,47,-3,59,-19,-73,24,-5,17,19,-13,1,20,-19,-10,5,9,-13,6,4,-15,3,-33,8,35,32,-39,46,6,26,13,-27,10,-19,-16,-16,-2,-16,11,8,-13,-1,9,-19,5,-50,126,-107,21,29,10,-19,-27,14,-29,25,-13,6,-9,23,-1,-8,-23,16,-16,81,-95,62,23,-47,18,10,-27,-19,25,-30,22,-15,-11,19,-11,-1,-3,-3,0,46,-42,2,2,-7,19,30,-21,3,19,-43,5,-48,28,20,-22,-2,-24,50,43,-122,77,-24,29,22,-27,3,1,-6,-7,11,-23,6,7,-24,46,59,-62,6,6,36,35,-61,-20,13,-5,22,4,-26,-11,1,1,-16,-6,14,71,-78,-20,34,-75,39,31,-33,-12,27,-6,12,-4,0,-12,24,14,15,-29,-63,-42,63,50,44,-62,-32,11,5,16,-13,-8,0,15,-32,-6,5,41,-79,95,2,-57,8,2,-8,33,-6,-1,19,-3,8,-26,-6,-9,17,-6,12,33,-71,0,7,39,17,-43,-22,34,13,-12,-7,-15,4,8,-8,-18,-21,14,58,-3,-17,-37,-37,-4,12,23,17,5,28,-2,2,-17,18,7,-43,-11,26,7,49,-92,33,38,-1,37,-44,-25,3,30,-8,-1,-18,6,-4,-11,-6,-3,37,-41,-24,6,37,-11,7,-45,70,-44,-8,7,2,-18,-2,-4,-15,22,-21,23,-30,10,-4,17,-26,3,70,-46,-24,25,21,2,-18,-3,-30,28,-1,12,-7,-2,-36,6,-13,7,-4,-10,28,3,13,25,-37,0,-43,10,15,-2,3,23,-4,-39,21,-13,1,-8,3,28,20,11,-54,-10,-3,22,-15,8,-36,33,9,7,-9,16,-34,-18,-1,40,-31,7,-27,-41,37,-16,33,-12,23,-4,-1,-20,16,9,27,-90,-17,56,2,61,-5,-48,-13,20,30,9,18,-35,4,-13,1,13,14,1,-36,25,6,39,-63,-1,-4,1,22,-24,9,-11,2,-18,21,-18,33,-63,5,-18,75,-44,12,-3,-1,36,-18,-14,4,5,-3,27,-45,-9,25,8,-15,35,19,-90,-104,36,4,26,42,-5,6,-13,7,5,6,-6,11,-12,-1,-11,13,13,62,-48,55,-58,-22,78,-32,29,-17,0,-15,20,-31,1,-14,-8,-19,10,107,-68,-37,-26,45,25,22,-42,-11,8,6,17,-40,27,-31,66,-53,15,-59,64,-96,9,-11,7,30,9,34,-29,4,-15,4,-10,-5,15,9,42,100,-78,38,1,1,20,28,-59,21,-4,-16,13,-41,-2,23,25,-2,42,29,-99,28,10,-40,58,-66,-8,9,2,4,9,-20,-4,32,-48,20,34,-62,-63,25,-2,33,91,-114,14,7,-3,54,-13,-10,3,-15,-16,32,1,-22,-66,-14,-36,23,65,-53,-4,-11,16,25,-7,25,-26,-6,-40,81,-26,-26,-23,-39,51,77,65,16,-36,-35,8,-6,9,-1,21,-16,5,-65,106,-97,14,3,-23,44,0,-32,-21,43,-29,30,16,5,-37,56,-8,48,24,-82,11,26,25,41,-13,-43,8,7,-32,5,-14,17,-6,-12,-1,-5,35,-94,59,68,24,-16,-25,-38,3,4,-26,22,-35,25,-21,-25,40,54,-30,-55,-10,91,65,-49,-8,8,12,-4,-8,-20,-14,-11,-13,-19,29,1,2,4,-50,-32,-9,10,25,7,-31,40,-77,45,-1,2,19,11,9,-99,48,91,-13,-15,-1,-32,49,-16,-15,-4,-23,5,13,-1,-53,87,-94,79,43,-70,103,-31,-16,-6,-3,21,31,-21,0,-7,-37,2,13,-6,-40,-14,103,-85,54,79,-105,-48,70,2,31,15,-52,1,-28,6,19,6,-45,19,53,-94,32,77,-70,14,-26,-20,49,-12,-12,-6,-20,-2,40,-12,8,-40,46,-56,-8,68,-79,25,-15,35,-22,26,-29,-26,0,34,-30,33,15,17,-31,50,-7,-13,38,-58,44,-15,3,-13,22,-77,17,5,-15,22,-43,-44,42,19,-23,18,36,-20,32,4,-24,9,-6,-7,-20,-3,6,-11,41,-55,11,11,-14,-4,9,-8,-7,19,-3,7,-13,10,-13,7,-20,-2,20,8,-14,12,0,-2,-14,9,-2,-2,-5,2,7,6,-14,0,-9,5,4,-1,3,-4,-6,-1,6,1
